x,TH_final,TW_H_final,TW_C_final,TC_final,dT,PH,dp_amb,alpha_i_final,alpha_o_final,Q3,mdot_vec,Tower inlet diameter,Air face velocity,Bu_c,Bu_j
0.0,354.54999999999995,0.0,0.0,0.0,0.0,9000000.0,8.699400710187401,0.0,0.0,0.0,0.11676071614415527,37.407290677872325,1.704710750484811,0.0,0.0
0.4,352.3256772072696,341.4376856021241,340.6628692659717,322.8668338511045,34.713916781315504,8999921.089359863,8.572241300255017,1348.0084961473547,35.351505449431244,430.94826613761717,0.11940499420097961,,,0.008261950329225365,1.6387065641873313e-05
0.8,350.22591152231354,340.27949725342336,339.5301813127128,322.31316231586317,32.96928171806991,8999843.616204796,8.459381407521725,1422.653544119929,35.33899698666721,416.765096929979,0.11639869483258046,,,0.008143418584348265,2.598451810474058
1.2000000000000002,348.24516319826154,339.15271725409525,338.4281353465251,321.7731075696925,31.336907093090133,8999767.528159453,8.357767816022427,1500.3276427673197,35.32676039098972,403.00817390142873,0.11976701551167689,,,0.008030826872078402,10.30255170074421
1.6,346.37791299558916,338.05978626849827,337.3591674776286,321.24900236804814,29.808954440976777,8999692.774317522,,1581.0239559042093,35.31486687899221,389.6800300411847,,,,0.007923899837621394,22.98159043910578
2.0,344.6186647918883,337.00234514702953,336.32490700588653,320.7421942841211,28.378631898457797,8999619.305285735,,1664.7102764192134,35.303355790936045,376.78708970168026,,,,0.007822612704265753,40.514470929921494
2.4000000000000004,342.9619894490358,335.98161696042956,335.32657302527315,320.2537867908706,27.03939292598068,8999547.073224755,,1751.3452582628022,35.29226006953095,364.33156472599575,,,,0.007726883975154146,62.79086901434928
2.8000000000000003,341.4025613721023,334.9984534235211,334.3650205798953,319.78469036891954,25.784935028135465,8999476.031872852,,1840.8807645482766,35.281610390463925,352.3116033289739,,,,0.00763656179301358,89.71154865436743
3.2,339.9351772611543,334.0532856082388,333.4406856472583,319.3354193541474,24.609449752043474,8999406.136558602,,1933.256325294351,35.27142305079322,340.7244771509469,,,,0.007551530122118973,121.1894049229749
3.6,338.55478731287207,333.14628736898766,332.5537549519057,318.906430307959,23.507288598186165,8999337.344202148,,2028.4105030657286,35.261715541219345,329.5630278664527,,,,0.007471560358469625,157.1476706236891
4.0,337.2565146040482,332.27736656131754,331.70415394793014,318.4980240867132,22.473094174662606,8999269.613302197,,2126.279480925936,35.25250117430164,318.81746724568904,,,,0.007396363567901876,197.51854388859144
4.4,336.0356683074107,331.44618979748674,330.8915701822418,318.1103361061309,21.50183254193854,8999202.903913215,,2226.797571613824,35.24378820801208,308.47615160104743,,,,0.0073256079549120215,242.24134920738464
4.800000000000001,334.88774961573927,330.652194072332,330.11546263481955,317.7433024118518,20.58885790271171,8999137.177616267,,2329.8952935252855,35.235579860482844,298.52685289212474,,,,0.0072589605297780375,291.2615488229826
5.2,333.80845625465395,329.8946306446034,329.37510565901044,317.39669909718475,19.729872077156188,8999072.39748563,,2435.5010915966377,35.22787384295389,288.9567260504067,,,,0.0071960798645558,344.52883503854355
5.6000000000000005,332.7937060232006,329.17273785502545,328.6697721330033,317.07056432755655,18.92045590042318,8999008.528042162,,2543.5672774907434,35.220677692912375,279.74656153747014,,,,0.007136360448475059,401.98163616988006
6.0,331.8396278823557,328.48558804970526,327.9985661734909,316.76471171259,18.1566535798205,8998945.53519698,,2654.043378730626,35.21399291031043,270.87868871626245,,,,0.007079246055294099,463.5530336097634
6.4,330.9425594944389,327.8321625088032,327.36050142978274,316.4788716895263,17.434792514443302,8998883.386195634,,2766.8849063077773,35.207816065089574,262.3351041050501,,,,0.007024148588940209,529.1635832522047
6.800000000000001,330.0990444196832,327.2113826669229,326.75453265821227,316.21274663955336,16.751436755952682,8998822.049559563,,2882.056480516867,35.202145102814875,254.09727437158145,,,,0.006970432997591936,598.7149856746304
7.2,329.30582528965306,326.6221144363544,326.17955833898276,315.9659577565749,16.103429671462436,8998761.495026277,,2999.529089698001,35.196974975702986,246.14708540185492,,,,0.006917454783022633,672.0871933613151
7.6000000000000005,328.5598376992746,326.063195566019,325.63444866981445,315.7381044098215,15.487841165334657,8998701.69348941,,3119.2833860263418,35.19229849410479,238.46648936555619,,,,0.006864541809952878,749.131791812611
8.0,327.8582030230167,325.5334490768816,325.118058649007,315.5287568429284,14.90195732271303,8998642.616938636,,3241.3102497139503,35.188108556429995,231.03770066052522,,,,0.006811001022221408,829.666759303146
8.4,327.1982211254459,325.0316986839295,324.6292436118353,315.3374800615327,14.343254460830451,8998584.238399846,,3365.612791352364,35.18439837935893,223.84313226264277,,,,0.006756114127524386,913.4699782427513
8.8,326.5773630619707,324.5567818503641,324.16687242783996,315.1638508661314,13.809375040867394,8998526.531875575,,3492.2087226682115,35.18116036222935,216.86531615218664,,,,0.006699132670861204,1000.272026270611
9.200000000000001,325.9932636419411,324.1075594851145,323.7298372269363,315.007464514702,13.298109514712792,8998469.472285708,,3621.132599086501,35.17838730907725,210.08688737691006,,,,0.006639276553225934,1089.7487548312083
9.600000000000001,325.44371415528,323.68292499119605,323.3170626234787,314.8679489793941,12.80737462800937,8998413.035408499,,3752.43901775763,35.17607342921537,203.4904863848461,,,,0.006575728972428506,1181.5127374087303
10.0,324.9266553059378,323.28181161924743,322.92751325079223,314.74498099376217,12.335193762402128,8998357.197821718,,3886.206436965843,35.17421426806963,197.05865831720266,,,,0.006507631491034191,1275.1038572853554
10.4,324.4401699278808,322.90319565160615,322.56019679878074,314.6382802129202,11.879691068395289,8998301.936844083,,4022.5400445429827,35.17280667131696,190.77393451432746,,,,0.006434089469571172,1369.9810508763167
10.8,323.9824757261941,322.54609916003784,322.2141667147208,314.54761239378047,11.439083262034558,8998247.230477223,,4161.575469245247,35.17184881614555,184.61886407019426,,,,0.0063541766415670204,1465.5138925984309
11.200000000000001,323.55191806483975,322.2095914396067,321.8885235359772,314.47278821439636,11.011674112138053,8998193.057348419,,4303.482853007956,35.17134016078007,178.57607022445725,,,,0.006266942825033528,1560.9749391563928
11.600000000000001,323.1469628573337,321.89278951132445,321.5824152732888,314.41366040294963,10.595850462033923,8998139.396654334,,4448.471518613834,35.1712813486104,172.62831665537496,,,,0.0061714242614140085,1655.5331713903158
12.0,322.76618962786415,321.59485796685027,321.2950371347641,314.37012119134846,10.190079091252983,8998086.228105979,,4596.795498024326,35.17167409000847,166.758574682281,,,,0.006066656246612158,1748.2489064663655
0.0,354.54999999999995,0.0,0.0,0.0,0.0,9000000.0,,0.0,0.0,0.0,,,,0.0,0.0
0.4,351.9115159079335,337.3477412615683,336.405675879146,314.581009793534,43.69044893510079,8999917.98562109,,1238.30805224219,35.07309274180764,523.9711970466964,,,,0.011398024663595682,2.1581587138054286e-05
0.8,349.43697882896765,336.2832043962846,335.3736450881921,314.2998629775802,41.241171284951974,8999837.748029135,,1319.5303892423192,35.06980141073984,505.8915106424998,,,,0.011239292589241934,3.433844938671771
1.2000000000000002,347.12013450117314,335.2367262224137,334.3591423358456,314.02415296470235,38.95011381819643,8999759.217826815,,1404.8525201542373,35.066588781169166,488.1069702111403,,,,0.011088616009094865,13.658529889491927
1.6,344.95412575818943,334.2146273637177,333.3683205798354,313.75616494384894,36.80933317167137,8999682.326750314,,1494.5107451135407,35.063497560248706,470.71083056779753,,,,0.010944644728883174,30.557091230367078
2.0,342.9317778625346,333.2204024248689,332.4045804128205,313.49711970644074,34.8110943921921,8999607.007990465,,1588.466308612361,35.06054996007096,453.7553806881344,,,,0.01080806510772527,54.01590889458774
2.4000000000000004,341.04571677356313,332.25698864614833,331.47078163277354,313.24808159809214,32.94747531217803,8999533.196420697,,1686.6548788894454,35.05776680139625,437.2836935070944,,,,0.01067942361700535,83.9308644746495
2.8000000000000003,339.2884777064317,331.3267847909856,330.56926303076887,313.0099903959476,31.210434479372566,8999460.828785606,,1788.9909428369958,35.055166557252,421.32912523212417,,,,0.010559084700846351,120.21189656923164
3.2,337.6525893750918,330.4315543405565,329.70173923444827,312.78341977502225,29.592194796372155,8999389.843855444,,1895.3638249669598,35.05275884264402,405.91884798323,,,,0.01044738515642452,162.7879882776176
3.6,336.1306671171145,329.57261580388086,328.86949896840844,312.56895706969493,28.08489942078444,8999320.182544854,,2005.6523438083614,35.05055699173095,391.0694276750844,,,,0.010344398464459172,211.60723536549565
4.0,334.7154861619588,328.75082055160243,328.0733790001131,312.3670894808818,26.680834176442715,8999251.787991796,,2119.7262028866303,35.04857374108204,376.7889864916241,,,,0.010250007679059505,266.63646807317525
4.4,333.4000404414926,327.9665821292841,327.3137912806491,312.1781817214509,25.37252867298355,8999184.605602494,,2237.449203621871,35.04682014700235,363.07841127770365,,,,0.01016393253090623,327.859219238601
4.800000000000001,332.1775850865968,327.2198946938644,326.5907376646495,312.00239970587467,24.152899276246387,8999118.583068067,,2358.6791525420335,35.04530274080671,349.93342063075016,,,,0.010085803216540295,395.2742317465433
5.2,331.0416697938361,326.51040073270025,325.90387680710256,311.83976261889615,23.01524249461835,8999053.67035749,,2483.271821269449,35.04402489389334,337.34502219945153,,,,0.010015155041247498,468.8918074037258
5.6000000000000005,329.98618691289687,325.83762575578623,325.25277123963446,311.6906861494517,21.952666830270573,8998989.819677519,,2611.114315406834,35.04300555300943,325.29262474960046,,,,0.009951008980249218,548.707790230821
6.0,329.0053748586773,325.2007909441447,324.6366807380744,311.5553150333253,20.95888635347501,8998926.985406602,,2742.0947048346356,35.04225562229444,313.7547621041252,,,,0.009892392953698924,634.7105425748495
6.4,328.09382388404816,324.5989295017884,324.05468226759194,311.43373065838165,20.027999329616648,8998865.124018313,,2876.114254355638,35.04178501308861,302.70709455125126,,,,0.00983820744381385,726.866361510518
6.800000000000001,327.2464760235759,324.0309366843224,323.5057192215431,311.32598376266344,19.154464167727838,8998804.193992706,,3013.0913175287824,35.0416030261018,292.12284817367293,,,,0.009787217026331351,825.1066353892671
7.2,326.45861729814493,323.4955930085953,322.98862202779065,311.23205260983644,18.333149594546285,8998744.155719608,,3152.9595540549635,35.04171722595072,281.97426276296727,,,,0.009738106246757656,929.318656738193
7.6000000000000005,325.72586704170345,322.99160554522365,322.50214907568244,311.1518762484368,17.559294601195404,8998684.971397392,,3295.670956421848,35.042134177030526,272.2327951426761,,,,0.009689471418179562,1039.3322274158759
8.0,325.0441645168772,322.5176385733136,322.04501670235334,311.08536923393694,16.828485337464315,8998626.604928916,,3441.1977527640474,35.042859949761144,262.8694909299001,,,,0.0096398259922064,1154.9061991433346
8.4,324.4097537211111,322.07233936366424,321.6159244723979,311.032435165269,16.13662998011023,8998569.021816317,,3589.534464702011,35.04390008624397,253.85526462095913,,,,0.009587605140798148,1275.7142459376435
8.8,323.81916723089074,321.6543601961055,321.213576914869,310.99298323955037,15.479929184043385,8998512.189055912,,3740.700581415478,35.045260212929435,245.16105552696726,,,,0.009531166950954486,1401.3295102598017
9.200000000000001,323.2692097994679,321.2623772854724,320.8367024072328,310.9669431597842,14.854842029538588,8998456.075033937,,3894.7443090933753,35.0469466408601,236.75785109525077,,,,0.009468788672834717,1531.2076070709825
9.600000000000001,322.7569419414495,320.8951048943692,320.4840672089802,310.9542795618083,14.258057882724415,8998400.649423584,,4051.7466440031985,35.04896667956503,228.61673097725046,,,,0.009398667636447032,1664.669071804581
10.0,322.27966376642684,320.55130587519557,320.15448594023144,310.9550009426514,13.686471511426817,8998345.883083759,,4211.826113626109,35.05132889781508,220.7089022638956,,,,0.009318925416401948,1800.8814153552605
10.4,321.8348991276627,320.22979834600307,319.8468280842971,310.96916288410785,13.137165674377627,8998291.747959936,,4375.143743262558,35.05404316226234,213.00579588969637,,,,0.009227620695581109,1938.8422151900045
10.8,321.4203803219597,319.929460369204,319.5600225458933,310.99686673622523,12.607394584731935,8998238.2169875,,4541.909161476317,35.05712066165328,205.47913364464128,,,,0.009122765167586339,2077.3630814732683
11.200000000000001,321.0340333496003,319.64923196494647,319.293059439836,311.0382573523614,12.09457370868978,8998185.263997907,,4712.387297469173,35.06057379621558,198.10105317842127,,,,0.009002349035893488,2215.056560699639
11.600000000000001,320.67396382824813,319.38811555443857,319.0449902946324,311.0935195951559,11.596271960485524,8998132.86362804,,4886.906347297476,35.064416919391746,190.84424132718794,,,,0.008864373062316406,2350.326661232339
12.0,320.33844375314186,319.14517601949257,318.81492798758995,311.16287311134334,11.110202606591201,8998080.991232976,,5065.868304594578,35.068663196791064,183.68200327792408,,,,0.00870688151088051,2481.362720037446
0.0,313.7231860958583,0.0,0.0,0.0,0.0,8996626.274176685,,0.0,0.0,0.0,,,,0.0,0.0
0.4,313.8544835460666,312.8658648123142,312.5218846767576,304.4996082441979,11.130500103766451,8996661.887461228,,7780.838844108256,34.859882130383674,191.31971903771793,,,,0.0378510099325432,10343.242151175411
0.8,313.98818362031494,312.98448471568065,312.6383520781703,304.56628918941703,11.207810621487965,8996697.872222552,,7713.538678816656,34.86160833088885,192.5169278560583,,,,0.03741770284942463,9519.878942672573
1.2000000000000002,314.12478492149376,313.10361322830005,312.7552972948964,304.6327327290455,11.288176045401315,8996734.236582482,,7631.6748373461805,34.86332161820366,193.73126405939715,,,,0.03696347676231177,8733.855330039154
1.6,314.264827256007,313.22449597052986,312.8739347792144,304.6994289721709,11.37179206294195,8996770.988786321,,7542.8230883737315,34.86503211371527,194.980063217336,,,,0.03645220135173017,7978.049086144936
2.0,314.4088703605654,313.3471689152055,312.99430786407413,304.76659512989914,11.458951777045627,8996808.137215756,,7443.7130376571395,34.866747841938434,196.25923163735698,,,,0.03589843794606087,7256.787379354597
2.4000000000000004,314.5574944116633,313.47203216604066,313.1168096313906,304.8344624136496,11.550031539790552,8996845.690390002,,7334.414899861138,34.86847485066305,197.57267482351418,,,,0.035301689237763,6570.765243986041
2.8000000000000003,314.7112871175111,313.5990575342239,313.2414254265488,304.9033351253021,11.64523854359146,8996883.656964168,,7211.689077403009,34.87022490607888,198.9128650624911,,,,0.034673995201483204,5922.479769461743
3.2,314.870864707434,313.72932763050034,313.3691952094322,304.9732577137568,11.745358635572302,8996922.045750134,,7081.435418247617,34.87199225071982,200.3035242951511,,,,0.03398284841758071,5307.310533585586
3.6,315.0368659216107,313.8637930355853,313.5010415466216,305.04450058094244,11.850898298817356,8996960.865764014,,6947.5959434504575,34.87378065440644,201.76023419312187,,,,0.03321608257051724,4724.791938207103
4.0,315.20994749717306,314.0031527343494,313.6376481965044,305.1173954453061,11.962255253218814,8997000.126260484,,6811.7221430306945,34.87559791316959,203.2914637505563,,,,0.03237672337355203,4176.577269285271
4.4,315.39078513498504,314.14805684424005,313.7796525968742,305.19228753603335,12.07981860897803,8997039.836759869,,6674.767479803976,34.87745266271191,204.9042649451738,,,,0.03147308272369201,3664.457019940105
4.800000000000001,315.58007790094854,314.29910889863413,313.9276436553127,305.2694272697219,12.204103584524432,8997080.007076152,,6537.2639099596745,34.879350722063734,206.6067726939927,,,,0.030517484986919516,3189.9802485287732
5.2,315.77855355902574,314.4568797505514,314.0821765913668,305.3490072723001,12.335714616769224,8997120.647347726,,6399.4385798753,34.88129508750864,208.40768235603863,,,,0.0295246242823519,2754.1694265811284
5.6000000000000005,315.9869623692055,314.62202547092085,314.2439134415167,305.43183689674015,12.474549296035775,8997161.76805536,,6261.497226134095,34.883311921176535,210.30367582732083,,,,0.028507102350038362,2357.151297219021
6.0,316.2060861336036,314.7951545542297,314.4134603706866,305.5184740312989,12.620828132896634,8997203.380031433,,6123.4404169900845,34.88541820074978,212.29604874582793,,,,0.02747859555400671,1998.549174830283
6.4,316.43674377862345,314.97687870825814,314.59142632381287,305.6094694251106,12.77481544678443,8997245.494473642,,5985.202735882463,34.88763059101638,214.38633787155106,,,,0.026451658089556206,1677.3852865838608
6.800000000000001,316.67979681904677,315.16782721567193,314.77843768158107,305.7053878095049,12.936801559141315,8997288.122958107,,5846.71201268989,34.88996617018442,216.5761572093588,,,,0.02543698887520522,1392.1667745316602
7.2,316.9361563979715,315.3686446975151,314.97513334174715,305.8067415227918,13.107191541018153,8997331.277453436,,5707.907934426847,34.892439854811634,218.86869004403076,,,,0.02444339988316908,1141.0228264532973
7.6000000000000005,317.2067899314353,315.580004521548,315.182178799596,305.9140188890207,13.286478386472822,8997374.970337223,,5568.771223746164,34.89506545001422,221.2683150081673,,,,0.023477643999882093,921.8219076278721
8.0,317.4927276645286,315.8026161091853,315.4002734275857,306.02769164971505,13.475242874828382,8997419.214414822,,5429.331770290946,34.89785635515862,223.78062126599337,,,,0.0225445739426988,732.2892359713438
8.4,317.7950690258494,316.0372305348089,315.63015618849545,306.14822311249884,13.674151267208686,8997464.022940636,,5289.666424828009,34.90082469866002,226.4123451965447,,,,0.02164742679080209,570.1047664327134
8.8,318.1149886464121,316.28464503704646,315.8726104576575,306.27607934436463,13.8839474526647,8997509.40964197,,5149.89103506421,34.903982263782574,229.17119752609662,,,,0.02078814774057531,432.9775143217165
9.200000000000001,318.45374187355725,316.5457071292665,316.1284686708922,306.4117498114972,14.105438282729551,8997555.388745148,,5010.150598841792,34.907341573039055,232.0655642836152,,,,0.019967692752930668,318.6974018631326
9.600000000000001,318.81266989543093,316.8213165402506,316.39861464670645,306.5557564136602,14.339485539339023,8997601.975003522,,4870.607874728241,34.91091600126269,235.10429464448828,,,,0.019186308945871464,225.16892755500103
10.0,319.19320458647786,317.1124257136795,316.68398436382995,306.70866174237125,14.587002001261283,8997649.183727102,,4731.432986597524,34.91472011401591,238.29654633643895,,,,0.018443763817438043,150.43047477797762
10.4,319.59687324427745,317.420038916356,316.9855651999459,306.8710686612265,14.848952848895522,8997697.030813657,,4592.794918045441,34.91877066577793,241.65171296284333,,,,0.017739520835509275,92.66351804220122
10.8,320.02530335317005,317.74521056663076,317.3043943057756,307.04362354393334,15.126361616273186,8997745.53278125,,4454.855649432023,34.92308354836861,245.1793986786463,,,,0.0170728608725111,50.195248249146616
11.200000000000001,320.48022763216136,318.08904210494694,317.64155532286327,307.2270089018191,15.420321755115992,8997794.706802351,,4317.766141016251,34.92767664141242,248.88950313582788,,,,0.016442968250787376,21.49732713161078
