x,TH_final,TW_H_final,TW_C_final,TC_final,dT,PH,dp_amb,alpha_i_final,alpha_o_final,Q3,mdot_vec,Tower inlet diameter,Air face velocity,Bu_c,Bu_j
0.0,339.10999999999996,0.0,0.0,0.0,0.0,8000000.0,21.025436918346408,0.0,0.0,0.0,0.042736112345922894,0,3,0.0,0.0
0.8,332.6511428444163,317.1739958145319,316.7172378790194,308.61567911953443,28.67706746473766,7999973.985753801,20.927095160706802,509.767861534562,50.009066317880006,508.0921276053812,0.0435939461640785,,,0.15973050902713729,0.00026818424245925664
1.6,327.62131712996546,315.3683174603703,314.9708198743024,307.9172797854935,23.447935527643324,7999949.576424447,20.85049735165766,561.9478686558056,49.987406588584996,442.17161546780403,0.04277227188638777,,,0.16890308153692574,184.72790701811041
2.4000000000000004,323.69683086334203,313.91186282014286,313.56299862612434,307.3703609739625,19.36735189169235,7999926.544202788,20.798397108676,620.0150986399019,49.9707122201426,388.07240512392053,0.043557786623703756,,,0.17832810013193404,791.8391787539114
3.2,320.62307745788837,312.73833409291916,312.4294456508253,306.9450007698918,16.17000508767609,7999904.7013691375,,684.4736207068986,49.95799569027531,343.6038512861458,,,,0.18816428174622735,1903.3203832874462
4.0,318.20317265536363,311.791589501178,311.51564549874377,306.61518953862594,13.651134464660402,7999883.893340654,,755.8909109908028,49.94838172840501,306.9568460907808,,,,0.19861554940660353,3607.9072055796214
4.800000000000001,316.2863592957881,311.02523447992485,310.77650231701847,306.3586475061673,11.655185881249679,7999863.992668205,,834.9393300305501,49.94110719545348,276.6867175220301,,,,0.20994684081243653,6006.933997383697
5.6000000000000005,314.75773057527533,310.4017418731373,310.17551145051647,306.15686716125293,10.06467490606343,7999844.894078855,,922.4354480452746,49.935525762982344,251.65604763231744,,,,0.22249397415524833,9222.494250437314
6.4,313.5299141260444,309.8915112396716,309.68389282939916,305.9955351440118,8.790238846513716,7999826.51044437,,1019.3456508122249,49.93114252120472,230.9522651493973,,,,0.23664566432195525,13406.864457893651
7.2,312.5368647379285,309.4725325558681,309.2803798223233,305.86653375139645,7.760989467994079,7999808.769375852,,1126.607642747263,49.927713640310316,213.74842919911634,,,,0.25269765551905843,18744.436790910357
8.0,311.72867206746093,309.1281034728551,308.9489295790428,305.76550368137214,6.921269399113953,7999791.610249585,,1244.9712661339584,49.92514073014282,199.31092129972632,,,,0.27081124907961823,25448.33495151218
8.8,311.06710785281507,308.8441783435597,308.6759809197988,305.6874633361463,6.2304925841804675,7999774.98180569,,1375.0805259048122,49.92327718094619,187.1008257581316,,,,0.29118398226146663,33769.49790386227
9.600000000000001,310.5238443175187,308.6131575528301,308.4546995732083,305.63918750846614,5.646240242210297,7999758.839805217,,1515.921168968698,49.922509661128444,176.26678325477732,,,,0.3129826198214238,43880.27262070376
10.4,310.0765418160604,308.42547416543323,308.2758636233083,305.6175674642233,5.145220773512733,7999743.145013019,,1666.1215538899692,49.922752093426084,166.42499837482794,,,,0.335689569146836,55948.72122663131
11.200000000000001,309.7065219243842,308.27005837207406,308.128323945953,305.6100076284315,4.719766157809602,7999727.862540046,,1824.9296989006818,49.92346178225478,157.66370005888487,,,,0.35972024448299866,70258.73037557465
12.0,309.3989805824464,308.1400840149415,308.0054529997995,305.61340098328617,4.355628079220537,7999712.961483375,,1989.6921720186208,49.92453330204651,149.76194970465386,,,,0.38453893835953407,86971.66869675533
0.0,339.10999999999996,0.0,0.0,0.0,0.0,8000000.0,,0.0,0.0,0.0,,,,0.0,0.0
0.8,331.98946077898273,315.49703684934326,314.9802889014992,305.79132879540657,31.356496292332054,7999973.130101295,,538.0054659694981,49.882050848715004,574.8243081248748,,,,0.18038461592983623,0.0002909382441375824
1.6,326.5735948914746,313.82963882265955,313.3840294873343,305.45930913360155,25.20031180267057,7999948.093860445,,602.0788127229097,49.87730323071123,495.6905565807351,,,,0.19297979060846787,203.34007000457277
2.4000000000000004,322.44873030362857,312.5052752608114,312.11708441617753,305.2130832359603,20.498598884994976,7999924.613741422,,675.0433587713358,49.87439257389665,431.8189063663555,,,,0.2064703098041668,884.8200622001186
3.2,319.2946135830995,311.4571163275518,311.1152473743363,305.0348973759865,16.89403619668417,7999902.46461431,,758.1244112695197,49.87291144123143,380.29098198977437,,,,0.22122682286144946,2161.172427510098
4.0,316.8690749281935,310.62806187604076,310.3236152577212,304.9087916453052,14.11457796413572,7999881.464223562,,852.7369652353507,49.87247168325933,338.6628190604987,,,,0.237721533926465,4169.066370752718
4.800000000000001,314.99125521267575,309.9710865914891,309.6969116914592,304.8205126824851,11.957555634892856,7999861.464874745,,960.5704734918568,49.872698282673454,304.98891751081845,,,,0.25655245393494164,7077.255769358496
5.6000000000000005,313.5267622484306,309.44844730245416,309.1987565914287,304.75787289768357,10.273316091613424,7999842.346627019,,1083.6455839036864,49.87325311390076,277.75299512128066,,,,0.2784700422188848,11102.897490234402
6.4,312.37590640323964,309.0306591846255,308.80074422145054,304.7116318642805,8.95072140958348,7999824.0118389465,,1224.29766645532,49.87388581815086,255.75468700099032,,,,0.30436703890208167,16530.80835973138
7.2,311.4650691033425,308.695988441629,308.4821102137533,304.6782661765883,7.903642677459231,7999806.380636041,,1384.7932329197165,49.87457411317941,237.91561224418135,,,,0.33504668327764003,23722.077455667146
8.0,310.73978150950705,308.4278966963426,308.2271811361085,304.6574943257894,7.06564263605793,7999789.386996524,,1566.8031573464207,49.87541947270072,223.27361634589107,,,,0.3710745568341345,33109.67518308376
8.8,310.1591190636053,308.21204437978986,308.0222750898814,304.64733141576875,6.388975811860064,7999772.975586757,,1770.7685349676287,49.876423929056315,211.09711464038014,,,,0.4127425436791039,45185.875508831225
9.600000000000001,309.69328263783535,308.0393768119791,307.85942985272794,304.6592841774471,5.823394072965641,7999757.098622598,,1991.1031333207764,49.87821845904085,200.17087014869654,,,,0.4571453454302662,60189.053126578256
10.4,309.319049190029,307.89875387887224,307.72804667745805,304.6923771223304,5.341688326943768,7999741.713106984,,2217.202048007898,49.88083226427608,189.8926727931385,,,,0.49995152865618653,78029.0393105342
11.200000000000001,309.0171634918882,307.77898779221096,307.6168388338294,304.73352379639385,4.936011562894805,7999726.779969684,,2436.9998194316818,49.88369759625247,180.37258444650928,,,,0.5380636501894994,98469.98156292806
12.0,308.77242157977383,307.6747736259123,307.5206839641303,304.7808453651034,4.590449082057944,7999712.263842269,,2636.863108239872,49.886759156186336,171.40751823188944,,,,0.5694391414294436,121152.77566555742
0.0,306.45698326970506,0.0,0.0,0.0,0.0,7999519.4565365575,,0.0,0.0,0.0,,,,0.0,0.0
0.8,306.6808579470631,304.8385047019305,304.7192523698001,302.595139398912,4.342677338798751,7999529.0469943555,,1438.788733941092,49.798449170475656,132.65488508959922,,,,0.5895301434677772,147024.7207101416
1.6,306.885120706542,305.08370262768995,304.95714860295993,302.7031229315146,4.471326084575651,7999538.810086974,,1554.8551965077122,49.8020894803519,140.7772016542561,,,,0.6306472699276324,133865.6646538989
2.4000000000000004,307.06830714715767,305.32620855015773,305.19254446651155,302.8120441891529,4.578102898871407,7999548.766225523,,1690.746231398367,49.805794718135836,148.68634716897853,,,,0.6709375865972854,119639.60748569325
3.2,307.23016306118444,305.56250846160424,305.42203165931005,302.92037411737334,4.663350332411085,7999558.937250353,,1848.3454602834825,49.80951261868234,156.26473499571702,,,,0.7096337617935382,104698.80894698227
4.0,307.3727768961111,305.78582720595966,305.63906943737237,303.0257409377164,4.729631917836457,7999569.346343811,,2021.5518891970885,49.81317306510699,163.25160767285098,,,,0.7470604684416193,89562.48230315938
4.800000000000001,307.50121685634275,305.98548533567106,305.83336384395767,303.1247061885985,4.782771524509258,7999580.017094292,,2188.0171841126376,49.8166805286391,169.2181498051544,,,,0.784991105768055,74798.75822930985
5.6000000000000005,307.6220507672113,306.15536515895946,305.9989233617343,303.21351238019594,4.831954499477092,7999590.971729884,,2322.5503959727653,49.81989248624625,174.02400645178957,,,,0.8242436002372411,60750.50487768592
6.4,307.7411832994776,306.2999879908186,306.13989316541887,303.28959396822273,4.887146230970188,7999602.23056421,,2419.1705484992362,49.822650172665114,178.08759173263394,,,,0.8628238754289961,47573.73579734294
7.2,307.86211854234966,306.4336315989658,306.2699233356413,303.3554239750753,4.952519430883569,7999613.8125560945,,2498.38299585253,49.82497614099228,182.1071373235295,,,,0.8956541988908263,35427.53573303018
8.0,307.9882692453217,306.56345713409513,306.3960632160563,303.4160710149443,5.026808905703717,7999625.740646883,,2566.4166161760677,49.827071605659704,186.20701592612528,,,,0.9210026604861765,24695.851431407955
8.8,308.12737466447663,306.68305516440984,306.5123546112767,303.4736175336235,5.112112175232085,7999638.036735407,,2592.3076434675813,49.82908464633353,189.8852774847438,,,,0.9409548461745757,15753.15620908128
9.600000000000001,308.29216798024834,306.8764397111211,306.69931345067323,303.54632937806224,5.211217461323031,7999650.725628087,,2773.48245286098,49.831332033047616,197.0331583112359,,,,0.9198477509308548,8535.820067373917
10.4,308.49268765082275,307.05662515611976,306.8747042137795,303.6365780516464,5.318447616596529,7999663.834207525,,2843.289214352931,49.83453912601387,202.36670572462307,,,,0.8898867135740134,3623.2108332047314
11.200000000000001,308.743014730356,307.26540572296705,307.07737260037396,303.7306657597337,5.468680407170609,7999677.390883368,,2902.653794059278,49.837736217079694,209.1658226924516,,,,0.8260974416838175,839.3398998313409
12.0,309.05480935775546,307.4434029961587,307.2510575335355,303.8278415424428,5.665895845712498,7999691.42514185,,2758.974463061572,49.84130023822126,213.96281881508713,,,,0.7594463641228453,1.4868383246689307e-27
0.0,305.7968271183873,0.0,0.0,0.0,0.0,7999519.257872265,,0.0,0.0,0.0,,,,0.0,0.0
0.8,306.0892083455784,304.00967198004616,303.89532939813347,301.85734714025864,4.439344161853569,7999528.795556696,,1234.7502182207784,49.76761577952398,127.19333677170262,,,,0.5113417652275861,130159.9800916556
1.6,306.3680632554258,304.26373447261653,304.1392308479205,301.92020355293914,4.6935340240325445,7999538.482126937,,1322.8843987467449,49.76895806843274,138.49636068669926,,,,0.5590240238387045,121191.33437064587
2.4000000000000004,306.62818041760886,304.52635072922567,304.3913435197623,301.98517786680384,4.93053290311542,7999548.340209364,,1429.4899541858724,49.77034583614291,150.18042424189932,,,,0.6084656919312306,110835.87862682775
3.2,306.8654153928442,304.79398169954,304.6482698959611,302.05139542614654,5.1461001921533125,7999558.395490491,,1557.8082835810656,49.77175998178791,162.0880882278254,,,,0.6588582335357405,99266.08585191204
4.0,307.0769156474297,305.0629046166963,304.9064360946983,302.11793518390624,5.337197928183855,7999568.6767033795,,1711.866421240812,49.773180829169085,174.05373466189818,,,,0.709010512762003,86733.65851737316
4.800000000000001,307.2617686424322,305.32886578804084,305.1617585697969,302.1837445148368,5.502469887512575,7999579.215720316,,1895.595254208586,49.774585902853005,185.88809473922444,,,,0.7576336578971334,73607.68617942708
5.6000000000000005,307.42331683799915,305.57983420566086,305.40268760936334,302.245846244404,5.644619618013678,7999590.047722041,,2098.1326925623293,49.775911655659556,197.05578032963712,,,,0.8054748985594827,60473.02314316695
6.4,307.57011117206804,305.79603885960853,305.6102432126728,302.2993476365257,5.7720401867707665,7999601.209159302,,2280.839972361248,49.777053682341915,206.67688193203753,,,,0.8553972849379352,47921.27702517043
7.2,307.7121887899122,305.9717878982413,305.77896136783465,302.3428390049848,5.894730478497763,7999612.733961804,,2411.553423786116,49.777981952149425,214.49795345654903,,,,0.9067856924253251,36245.284420247466
8.0,307.8565707611762,306.1247757115765,305.9258287155621,302.3806989613197,6.019030294884374,7999624.652381861,,2502.7273613641128,49.77878996393595,221.3062870375995,,,,0.9531882604164946,25642.273233973985
8.8,308.0088233863798,306.2747019681947,306.06975684526054,302.41780202571067,6.1487960609226775,7999636.999325586,,2580.684946678717,49.77958176564836,227.97853227421828,,,,0.9894198975296494,16495.09266507999
9.600000000000001,308.18229843665824,306.40794474911166,306.19766887112064,302.4507783440166,6.2951717395106925,7999649.809153625,,2601.3358337462114,49.78028545326152,233.9084009727711,,,,1.0192140484973955,9240.0169977218
10.4,308.39904558837776,306.6528221540123,306.4327489178442,302.51138234623164,6.459980839402192,7999663.119775111,,2805.2643117075777,49.78157857802742,244.80686640310768,,,,0.9994546890206749,3938.4286869071198
11.200000000000001,308.6801689357484,306.88027158464763,306.65109795318006,302.56767580710374,6.68076935851127,7999676.975000621,,2883.4408023952933,49.78277959413693,254.93003838552175,,,,0.9687536068486765,934.8389903339195
12.0,309.05480935775546,307.1651759961795,306.9246026820705,302.63819085424353,6.973393719630167,7999691.42514185,,2950.452593783483,49.78428384527642,267.61091058272194,,,,0.8905229472545932,1.646472877738654e-27
,,,,301.15,8.564649554741528,,,1733.9589146390965,49.854409892240234,235.3791299281017,,,,,
,,,,301.15,,,,,,14122.747795686102,,,,,
,,,,301.15,,,,,,,,,,,
,,,,301.15,,,,,,,,,,,
,,,,301.15,,,,,,,,,,,
,,,,301.15,,,,,,,,,,,
,,,,301.15,,,,,,,,,,,
,,,,301.15,,,,,,,,,,,
,,,,301.15,,,,,,,,,,,
,,,,301.15,,,,,,,,,,,
,,,,301.15,,,,,,,,,,,
,,,,301.15,,,,,,,,,,,
,,,,301.15,,,,,,,,,,,
,,,,301.15,,,,,,,,,,,
,,,,301.15,,,,,,,,,,,
