x,TH_final,TW_H_final,TW_C_final,TC_final,dT,PH,dp_amb,alpha_i_final,alpha_o_final,Q3,mdot_vec,Tower inlet diameter,Air face velocity,Bu_c,Bu_j
0.0,339.10999999999996,0.0,0.0,0.0,0.0,8000000.0,6.78711027954523,0.0,0.0,0.0,0.024550102065603423,68.05339341391988,1.5080514939518768,0.0,0.0
0.4,334.6806242241131,321.5038634593833,321.15019272254864,312.3718098940009,26.69819298320499,7999995.154747004,6.741358748901735,479.73375087927354,32.01846314371299,196.70957332968976,0.025179855271044153,,,0.32720069910223615,0.0005945637751757055
0.8,331.1203611976838,318.8572592309573,318.5525317330484,310.980792439567,23.79354186336434,7999990.50913716,6.70752533619854,453.02813419199936,31.987644210460754,169.48763317349164,0.024639239356073647,,,0.3735298130784516,107.6494135806701
1.2000000000000002,328.15245054361947,317.1385481698972,316.86629152492856,310.09677511803443,21.213856087849194,7999986.036545417,6.6878540346436655,454.80324752973985,31.968250086234328,151.4275366780627,0.025090717980307316,,,0.40368570061161574,465.36849959043275
1.6,325.64972902340804,315.7803087625758,315.5341181351711,309.40950765864767,19.00555357950367,7999981.717671135,,462.1860894378838,31.95329184190459,136.9297717862338,,,,0.43115307111353685,1119.6854084130562
2.0,323.52345653687934,314.6600723729562,314.43568273815947,308.8510640762538,17.11546030027165,7999977.536695658,,471.93957431580264,31.941230366363772,124.80418861919387,,,,0.4582295051786761,2118.2182616580308
2.4000000000000004,321.70591631739546,313.7189780103932,313.51314481548246,308.38857719296175,15.491944439796612,7999973.480279829,,483.0760656140738,31.93131881521645,114.48320645747866,,,,0.48579868102909296,3512.153791400786
2.8000000000000003,320.1437529438586,312.9197030839334,312.7298296269191,308.00123962922004,14.091296100266277,7999969.537025603,,495.1952033810838,31.923083921039776,105.60649458666288,,,,0.5143728475772844,5357.600709607716
3.2,318.7942657035972,312.23559176732465,312.0595470682727,307.67428554731174,12.877391444944806,7999965.697110583,,508.1127130564554,31.916190495160574,97.91502114163114,,,,0.5443365331097065,7716.872108512384
3.6,317.62294721740705,311.64646970415384,311.4824786741187,307.3966395196323,11.820513435998464,7999961.9520148905,,521.7415947499743,31.910387688633058,91.21084164888481,,,,0.5760263580722104,10659.80319020216
4.0,316.60170910130995,311.13657485181915,310.9831438107987,307.15974781869085,10.896189909186432,7999958.294307508,,536.0449585267613,31.905482390328174,85.33743819643581,,,,0.6097621902061848,14265.100307661736
4.4,315.7075495640913,310.6933517067369,310.54921438871514,306.9568864111957,10.084201140518417,7999954.717474911,,551.0142456396633,31.9013239891644,80.1683244166754,,,,0.6458594840957137,18621.66999740397
4.800000000000001,314.9215307513691,310.30666882003896,310.1707456756399,306.782718132815,9.367766224240427,7999951.215781356,,566.6578313789653,31.897793860061537,75.59964960753123,,,,0.6846321041853829,23829.831657176717
5.2,314.2279836053968,309.9682755073354,309.8396423543859,306.6329871561498,8.732882878706732,7999947.784153562,,582.9941708227831,31.894798069596288,71.54499947418878,,,,0.7263882105022545,30002.249862655215
5.6000000000000005,313.61388330924336,309.6714024079498,309.5492658445079,306.5042901659713,8.167803608299778,7999944.418084562,,600.0470907399498,31.8922628779965,67.93163480229664,,,,0.7714210986169528,37264.40286218312
6.0,313.0683544583775,309.4104557789946,309.2941335632415,306.3938964818298,7.662624927909405,7999941.113552832,,617.8420874102378,31.8901305163301,64.69772897859866,,,,0.8199963010801965,45754.40120155063
6.4,312.58227593489016,309.18077651292725,309.06968159275306,306.2996019059536,7.208968209261116,7999937.866953826,,636.403093301756,31.888354590811876,61.7903380372506,,,,0.8723366167065568,55622.01964588835
6.800000000000001,312.1479619825989,308.9784393225317,308.8720662249521,306.219585626455,6.799749022022468,7999934.675041807,,655.750053374961,31.886897600065147,59.16408821770242,,,,0.9286109364795425,67027.1211022629
7.2,311.75890221912454,308.80008337327075,308.6979959049668,306.1522748428991,6.429016069457134,7999931.534880588,,675.897868539066,31.885726914623117,56.78044654783992,,,,0.9889312185310982,80137.87807887582
7.6000000000000005,311.4095521266926,308.6427983090066,308.5446189477138,306.09627355149536,6.091776821963151,7999928.443801994,,696.8551241945131,31.88481305673112,54.60678055308663,,,,1.0533375316138858,95127.75641726035
8.0,311.09517491065435,308.5041138919663,308.40951798054147,306.0504775793881,5.783669954081631,7999925.399370128,,718.615919199252,31.88413382108047,52.613686937201344,,,,1.1216961506544494,112164.85629016976
8.4,310.81171620682505,308.38196245502735,308.29067512987865,306.0141070812844,5.500773655414093,7999922.399349332,,741.1522854730545,31.88367571347667,50.773470804927456,,,,1.193544552427337,131392.01328749378
8.8,310.55570491450686,308.27465445728285,308.18645038703664,305.98675482461454,5.239427808095172,7999919.441674409,,764.4029560648692,31.883435833151086,49.05858266758958,,,,1.2678479331829537,152891.18293347937
9.200000000000001,310.3241776165235,308.18087823277676,308.09558536722045,305.9684901257198,4.996018150955081,7999916.524421454,,788.2518552742356,31.88342554947961,47.43938774812393,,,,1.3426869017243412,176628.44654288082
9.600000000000001,310.114611645582,308.099625458583,308.0171291115224,305.95979254993966,4.766969277270903,7999913.645778304,,812.5064013374233,31.883668663701428,45.88398067547693,,,,1.415144803134,202402.85276825615
10.0,309.9248514599033,308.03001612558927,307.9502569266717,305.96121687191743,4.5490471051380155,7999910.804015969,,836.8940135486354,31.8841907448158,44.36159508812441,,,,1.4817126059589913,229844.0522305407
10.4,309.7530006146258,307.97090866433746,307.8938587520666,305.97243689856793,4.340358378603128,7999907.997467123,,861.1362725932988,31.88498794984036,42.854705875824735,,,,1.539526585657751,258527.48480405993
10.8,309.5973564828601,307.92105689480036,307.84670333010706,305.9925899164433,4.139874322273613,7999905.224514588,,884.9581459037494,31.886038173201005,41.35501340744013,,,,1.586811731491706,288045.0592179338
11.200000000000001,309.45650107532646,307.8802776157919,307.80867900735245,306.02335035480843,3.943920125151692,7999902.483572043,,907.7862964188806,31.88740176410176,39.822722986968934,,,,1.620881892692808,317744.69359125715
11.600000000000001,309.32907035941366,307.84698054848104,307.7781648262799,306.0623253556806,3.753686377254553,7999899.77307435,,929.4233149667721,31.889004807372483,38.274898074488455,,,,1.6427576399151136,347396.01204202295
12.0,309.21408650816477,307.822566356974,307.7567184141255,306.1149947201531,3.5615568986133894,7999897.091451849,,948.7479546414127,31.891031322641552,36.62423674608705,,,,1.6482630290670313,375856.96848301723
0.0,339.10999999999996,0.0,0.0,0.0,0.0,8000000.0,,0.0,0.0,0.0,,,,0.0,0.0
0.4,333.9471909172798,319.0566784402959,318.6312652741655,308.0224283637022,31.123379443491046,7999994.947418883,,508.3361700205461,31.88231867105298,236.61228837579196,,,,0.3894756417395792,0.0006775587806478717
0.8,329.95578152652365,316.50022406384164,316.1430687595249,307.2331092555012,26.91568524289903,7999990.136688816,,482.5849650781807,31.87174951276273,198.64766909401555,,,,0.4482588513362917,123.64630901865084
1.2000000000000002,326.7257286249427,314.8903588420754,314.57663059443513,306.7483244475704,23.522577482073586,7999985.5305102505,,486.9666163717302,31.865518294708682,174.4937969113635,,,,0.4899236291960347,540.6021373859448
1.6,324.07146822901456,313.6491209636705,313.3691314765439,306.38156474937244,20.73961628154359,7999981.102903911,,497.5122935225352,31.860957508718304,155.72849774981364,,,,0.5299532357141662,1316.7674599088775
2.0,321.8679071841745,312.6477966816232,312.39522763883195,306.09120088349033,18.43237305479346,7999976.833229533,,510.85952223706556,31.85747060658002,140.47740869546445,,,,0.5712758170345641,2523.984603176232
2.4000000000000004,320.0230756587358,311.82367478091714,311.5938479848926,305.8569067817197,16.50255321372356,7999972.704550154,,526.0172284895241,31.854765129444235,127.8283054668665,,,,0.6152889580219183,4244.380262514047
2.8000000000000003,318.467060240873,311.13717721797053,310.9264484927132,305.66583743150153,14.875700176398198,7999968.702743286,,542.6208746349166,31.852655536047315,117.20607140126312,,,,0.6630513540103594,6573.940827520696
3.2,317.14574645806704,310.56043918876065,310.3658920591382,305.50895021025445,13.494366142342642,7999964.815906395,,560.5434605802687,31.85101127247044,108.20596361752484,,,,0.7155759272522811,9626.494647908243
3.6,316.01672590407486,310.07275816391194,309.892017299458,305.379546529375,12.31365961331511,7999961.033924138,,579.7724269217053,31.849735918582095,100.5270005091792,,,,0.773938567445937,13538.255296610216
4.0,315.0464349025367,309.65827911224704,309.48938472594705,305.2725286816534,11.298135033982078,7999957.348139983,,600.3625299460331,31.848756743313857,93.9380593768006,,,,0.8393311750932863,18472.89848155601
4.4,314.2080839700928,309.30462631132156,309.14594480282096,305.18396997316887,10.419536543191214,7999953.7511007115,,622.4155472058793,31.84801877707263,88.25771709987707,,,,0.913089366717952,24626.962071201095
4.800000000000001,313.4801280281393,309.00200918581027,308.8521674661816,305.11082973416455,9.655134868172524,7999950.23635406,,646.0705193671026,31.847480812848982,83.34107879422845,,,,0.9967031166264028,32235.169266257708
5.2,312.84512022001974,308.74260071719596,308.6004371429188,305.05076144320253,8.986479668658774,7999946.798286034,,671.497513939539,31.847112813455244,79.07053973729086,,,,1.0918013112408695,41574.789610387605
5.6000000000000005,312.2888429547517,308.5200833102294,308.3846106441577,305.00196953206927,8.398461264066555,7999943.431988321,,698.8919432583723,31.8468940687993,75.349096142748,,,,1.2000458435512602,52965.9398981084
6.0,311.7996416700082,308.32930424055826,308.1996813851087,304.96309142997217,7.878606862051015,7999940.133148814,,728.4682873082876,31.846811297274897,72.09546605054427,,,,1.3226751552300098,66755.43480899533
6.4,311.3679100472894,308.1659926870434,308.0415032639598,304.93309206879184,7.4165538449740325,7999936.897960042,,760.4463710291651,31.846856818355633,69.24028132283287,,,,1.4591231709975483,83250.6729430907
6.800000000000001,310.985693453389,308.026473785956,307.9065115355478,304.91115424698916,7.003661554997848,7999933.723041189,,795.0043052629333,31.847026618590313,66.72229465904809,,,,1.6045996595997887,102572.26011939748
7.2,310.646381884102,307.9073865155942,307.79144690342315,304.8965572199101,6.632742689345889,7999930.6053698035,,832.1868528508937,31.847317964985177,64.4849270600794,,,,1.7492046290250227,124519.34234285011
7.6000000000000005,310.3444579702884,307.8056123556052,307.6932850352944,304.8886271503954,6.29782788829408,7999927.542221028,,871.856141968585,31.847728139703325,62.4757916740115,,,,1.8819981455616162,148664.23549145384
8.0,310.07528662628823,307.7184793379862,307.609439381272,304.8869095497956,5.993769753656466,7999924.53111408,,913.7430404902938,31.84825916831009,60.647379476625176,,,,1.9968537058679052,174640.13743609827
8.4,309.83494349639255,307.6438403153488,307.53783901627185,304.8912367253668,5.715987263865827,7999921.569766,,957.5032534799507,31.848919771372948,58.95729604720795,,,,2.093823887630621,202316.04469620885
8.8,309.62008968167027,307.5799970489193,307.4768588427763,304.9018106805271,5.460196727585071,7999918.656051044,,1002.6817122972244,31.849728554439096,57.364860669988836,,,,2.172382920737301,231471.90631774775
9.200000000000001,309.4278876297181,307.5255893974665,307.4252189243872,304.9193561034004,5.222091685841349,7999915.787961808,,1048.5867260789705,31.850720415424185,55.825463879840505,,,,2.232556294998931,261860.41855296944
9.600000000000001,309.255932465277,307.47945599252887,307.3818481475712,304.94505815762403,4.9973103643865215,7999912.963569133,,1094.1573969947035,31.851945213832554,54.28890643774583,,,,2.2752785438177745,293249.02561591956
10.0,309.10217761333286,307.4404507367915,307.34569203398934,304.98015202329185,4.781828112582161,7999910.180982127,,1137.8866483684133,31.853454440236042,52.70423046232678,,,,2.302326420025422,325446.3166090894
10.4,308.9648252037185,307.40711656314534,307.3153520266548,305.02469841875495,4.573302323544283,7999907.438317259,,1177.9644971737414,31.855260005007175,51.03889288120634,,,,2.3165345699608153,358367.88359049807
10.8,308.8422617471746,307.377905841415,307.28931410756087,305.0780185364954,4.370499738929482,7999904.733681526,,1212.3344685089726,31.85734819023313,49.27419877798926,,,,2.3210845455226723,392020.22735855967
11.200000000000001,308.73314243625595,307.35242875146605,307.2673017432193,305.14266695307475,4.168689763393786,7999902.065145833,,1238.2644288865401,31.859812054839725,47.34713887584551,,,,2.3170791171750578,426224.18582905614
11.600000000000001,308.6362000022645,307.32823163806296,307.2468495267166,305.2158733245505,3.969408606451168,7999899.430727124,,1252.5905871920213,31.862570147963215,45.264249381249336,,,,2.309519277725452,461363.10799525696
12.0,308.5504692962078,307.30789556320843,307.2307241624347,305.30504835019855,3.762987260803243,7999896.828358681,,1253.387984919209,31.865866852606796,42.92227704502753,,,,2.2941957811474376,496600.341970127
0.0,306.48023205284323,0.0,0.0,0.0,0.0,7999827.20327458,,0.0,0.0,0.0,,,,0.0,0.0
0.4,306.59119537215025,304.5180315377436,304.4515184292244,302.78800366659544,4.157220197679408,7999828.975524732,,688.2324384723504,31.795405861427675,36.994198332482576,,,,1.9552226094992258,517950.2168503325
0.8,306.6969231074466,304.60835823031476,304.54031330685194,302.8384927025042,4.2244412408728635,7999830.762664273,,697.8504897665181,31.796591667390352,37.84618470583292,,,,2.0401710420295753,499941.12239493866
1.2000000000000002,306.7972821683531,304.69625012842255,304.62672955343623,302.88803073974884,4.286986344998695,7999832.565435553,,707.7169154261338,31.79775926599482,38.66693331247557,,,,2.1263970472074303,480582.12411372236
1.6,306.89219573771635,304.78141586343065,304.71047911910574,302.93639954149774,4.344935764753018,7999834.38459511,,717.7689424211214,31.798903325535054,39.45459827548458,,,,2.2136597097965294,459968.7148762193
2.0,306.9816418912342,304.8636753352147,304.7913823953792,302.9834284201118,4.398404997772104,7999836.220911295,,727.9913622652178,31.80001910307833,40.20890622384454,,,,2.3016418206859854,438205.5261772461
2.4000000000000004,307.06565798809254,304.94286037366413,304.86927207054265,303.02896963374343,4.447542865548314,7999838.075162156,,738.3482937270776,31.801102542641633,40.9293796237285,,,,2.3900259130780683,415420.8458883573
2.8000000000000003,307.14436295317483,305.01885021441007,304.94402726943895,303.07289811531086,4.4925523655616075,7999839.948133506,,748.8033498220565,31.802150058071007,41.616080110245335,,,,2.4784761749010893,391760.8540025898
3.2,307.2179924127984,305.0916036262236,305.015604949082,303.1151242040003,4.533710756854418,7999841.840617245,,759.3271242108736,31.803158781083216,42.270015426093394,,,,2.566620717511388,367385.3419969086
3.6,307.28693038329834,305.1611977602271,305.084077728275,303.1556066061367,4.571396876502831,7999843.753409623,,769.9084085853735,31.804126736343324,42.89370631489962,,,,2.654024641894056,342463.5890039226
4.0,307.35171642262173,305.2278601479938,305.1496650584422,303.19436205699407,4.606105148477695,7999845.687309255,,780.5664676995369,31.805053130887497,43.49164698876739,,,,2.7401656795249765,317171.96479889326
4.4,307.41301831884914,305.2919815222393,305.2127459442538,303.23147581307813,4.63842587526733,7999847.643115295,,791.3605957418213,31.80593823422964,44.07036051170488,,,,2.824426067422971,291693.70113625453
4.800000000000001,307.4715786174409,305.35410584661844,305.27384977301205,303.26711252772253,4.668989029301429,7999849.621626669,,802.3946038033051,31.806784212236686,44.63795408885842,,,,2.906105741368895,266219.65421182587
5.2,307.52815354058697,305.41490453022715,305.3336319510225,303.301527467639,4.698387007314238,7999851.623643244,,813.8167794723291,31.80759559741432,45.2033285198375,,,,2.984449561597302,240948.20135431146
5.6000000000000005,307.58346138134823,305.47514363430804,305.3928425419674,303.33507111456913,4.727104979074284,7999853.649969348,,825.817971846267,31.80837965909941,45.77538142210973,,,,3.0586776064233105,216083.2635923122
6.0,307.6381501484073,305.5356518479445,305.45229511832275,303.36817947068573,4.755482800156756,7999855.701419456,,838.6311706468782,31.809146290354548,46.362520655934816,,,,3.128009081871,191830.49213899148
6.4,307.69278579714694,305.59729647467816,305.51284280565886,303.4013519585576,4.783715122120725,7999857.7788253715,,852.535789256498,31.809907368614248,46.97263176042111,,,,3.1916724776183187,168392.26035169084
6.800000000000001,307.74785149466794,305.66097299323116,305.57536728160636,303.43512614369354,4.811873725840314,7999859.883043435,,867.8689282925666,31.810675931941038,47.61339092691869,,,,3.2488959005385287,145962.30339068666
7.2,307.8035884585282,305.72752419258626,305.6406992984223,303.4700327388891,4.839863882424254,7999862.0149342865,,885.0207225601497,31.811465133178288,48.29149301040637,,,,3.298853177557385,124721.21619206162
7.6000000000000005,307.86002359190024,305.79764622337615,305.7095268502754,303.5065569274069,4.867384554894784,7999864.175475614,,904.4133741492925,31.812287492238607,49.01147452541547,,,,3.341188991889842,104841.16065986562
8.0,307.9177899076261,305.87240936942425,305.78290195687924,303.5452955394681,4.894281242857744,7999866.365682558,,926.706022616738,31.813156945040056,49.78349385791441,,,,3.3748681769552507,86459.25220847255
8.4,307.9777588851069,305.953605834595,305.86257745664284,303.5870188695824,4.920777986146845,7999868.586614158,,953.0058874271006,31.814088680677433,50.62944583557305,,,,3.398188341372125,69686.45434413143
8.8,308.04099231561906,306.043792170544,305.95105386872,303.63282904236564,4.947083911234358,7999870.83940147,,985.027378447746,31.815104479862992,51.58049540163197,,,,3.4086768018724363,54613.63940966217
9.200000000000001,308.10875231020736,306.14656076946767,306.0518510969314,303.68443783630534,4.9730950009740695,7999873.125275393,,1025.4105443464675,31.816240900028312,52.67696015171647,,,,3.402613742491435,41312.758273660074
9.600000000000001,308.1825250806069,306.2663763040725,306.1693501698999,303.74414120859797,4.998403851746616,7999875.4456027355,,1077.9086344972532,31.8175490448098,53.96536245442534,,,,3.374730336184408,29841.24381394636
10.0,308.26401361725186,306.4064546764953,306.30673387645464,303.8143018301536,5.022445854630973,7999877.801918686,,1145.9238828686587,31.819090939125413,55.46411969240713,,,,3.3194028943168377,20249.60675758989
10.4,308.35496361989055,306.56238729098874,306.45979294633185,303.89569975120787,5.044938244093373,7999880.195907858,,1225.9873058052524,31.820924197541963,57.06236824161894,,,,3.236480326945057,12583.119245875585
10.8,308.4568199791008,306.720975085498,306.61582552486794,303.98806893653875,5.064683264971507,7999882.629280977,,1302.8957550342182,31.82312896494787,58.48356423250761,,,,3.1348398091060456,6839.21865201122
11.200000000000001,308.57067193782024,306.87696887339695,306.7699356785676,304.0953577035681,5.076826175722147,7999885.103613486,,1365.2418656827463,31.82588096667615,59.531230419413696,,,,3.0167447332023416,2923.4747162606927
11.600000000000001,308.69817609912644,307.04237110890966,306.9335525722387,304.21465190106767,5.089181435140233,7999887.620388545,,1427.006757799607,31.8289950151913,60.52422701002087,,,,2.8614307840207416,695.9179761437409
