x,TH_final,TW_H_final,TW_C_final,TC_final,dT,PH,dp_amb,alpha_i_final,alpha_o_final,Q3,mdot_vec,Tower inlet diameter,Air face velocity,Bu_c,Bu_j
0.0,354.54999999999995,0.0,0.0,0.0,0.0,9000000.0,20.059790328741087,0.0,0.0,0.0,0.11807709548463506,0,3,0.0,0.0
0.4,352.51094418825556,342.9551409395145,342.23759503499025,329.38060679570793,26.49152416618665,8999919.418551268,19.920654486224397,1416.5645143246352,49.05271784861574,399.09479059383244,0.11942290451534407,,,0.006910262628042229,1.3922692055459753e-05
0.8,350.6010866155186,341.9753068350708,341.2883478035213,328.9764185516312,24.821477896218312,8999840.17412271,19.824548585711682,1496.9726024332183,49.040958352384635,382.0825526437731,0.11834923204787269,,,0.006672916805559559,2.16467327884201
1.2000000000000002,348.81365112448754,341.0247893862345,340.36749285060074,328.5844010459022,23.268083030916955,8999762.205245122,19.774730902091797,1580.4953395946359,49.02954354304416,365.58444775272136,0.11915076795212273,,,0.006439977061254007,8.405674053896648
1.6,347.14191249124985,340.105706229719,339.47711789412296,328.2060957904465,21.823145019562048,8999685.45242137,,1667.0848575600776,49.01853004165105,349.61711658566605,,,,0.006211568538000857,18.34246469519955
2.0,345.5792398470854,339.21951163646645,338.6186509224334,327.8424430815493,20.47913185860125,8999609.858205138,,1756.6753036890168,49.00795186109688,334.1951773716946,,,,0.005987902798866697,31.5964299254317
2.4000000000000004,344.1191486836389,338.3672106015407,337.7930813887565,327.4941341766671,19.228845225711098,8999535.367260639,,1849.1934947868053,48.99783570106648,319.32727439282746,,,,0.005769139765621681,47.79439836290323
2.8000000000000003,342.75535011209496,337.549426196041,337.00102777571084,327.16168469211794,18.065398359061987,8999461.926396804,,1944.5632708411683,48.98820077066626,305.0159597262,,,,0.005555368182754863,66.57123402402348
3.2,341.48178628066705,336.76643126240685,336.2427673397905,326.84542963315846,16.982268844586656,8999389.484577287,,2042.7070241253584,48.979061421729725,291.2587783080058,,,,0.005346623249870269,87.57177120986039
3.6,340.29265704033077,336.0181921572426,335.51827854595905,326.5455427078967,15.973314285078231,8999317.992910542,,2143.547933086874,48.970428439923445,278.0489955408249,,,,0.005142894377356241,110.4521083365398
4.0,339.1824384603387,335.30441202758317,334.8272830637798,326.2620568761908,15.032780549924723,8999247.40462277,,2247.012028593668,48.96230452384831,265.3763092967584,,,,0.004944133390437786,134.88039126938196
4.4,338.14589451885456,334.6245741446827,334.1692880067515,325.99488441507015,14.155296217183036,8999177.675016535,,2353.0303618132375,48.95469128802463,253.22745866156293,,,,0.0047502606434736425,160.53714308495887
4.800000000000001,337.1780828686941,333.9779819059516,333.5436248795352,325.7438417747658,13.335865294944597,8999108.761417553,,2461.5409983962963,48.947585301448925,241.5868105545801,,,,0.004561171556120962,187.11526956893704
5.2,336.27435562705233,333.36379546383955,332.9494852392511,325.50866556451183,12.569854635398826,8999040.623112058,,2572.490894500823,48.94098148692599,230.4368978765163,,,,0.004376742823599665,214.31983545065012
5.6000000000000005,335.4303562762848,332.78106578800197,332.385953979398,325.28902902071985,11.852976222508403,8998973.221276846,,2685.837941995032,48.9348715016252,219.75885239204126,,,,0.004196836598537942,241.8676144118211
6.0,334.6420135030586,332.2287650092608,331.8520390145178,325.08456704499577,11.181266270767594,8998906.518903758,,2801.5531188373698,48.92924735213778,209.53277140373532,,,,0.004021303797393759,269.48646959323634
6.4,333.9055323866506,331.70581125238647,331.34669540956855,324.8948808625811,10.551069154329696,8998840.48072029,,2919.6222730095997,48.924097477854474,199.73810899962064,,,,0.0038499892338796937,296.9147862781197
6.800000000000001,333.21738397161323,331.2110919076637,330.8688482332727,324.7195588501607,9.95901309924568,8998775.07310771,,3040.048608138583,48.9194119867966,190.35390865746157,,,,0.003682733034843787,323.900689243625
7.2,332.57429348579035,330.74348201701986,330.41741048423876,324.55818067225175,9.401991418321984,8998710.264017813,,3162.854984059658,48.915179753766374,181.35905909078778,,,,0.0035193737115522534,350.20136038912193
7.6000000000000005,331.9732278651483,330.30186052651504,329.9912990645439,324.4103336743177,8.877140281694722,8998646.022889277,,3288.0868987759713,48.911389293188556,172.73244939005184,,,,0.0033597491201088946,375.5822241143085
8.0,331.41138259865363,329.8851218715509,329.5894459709804,324.27561188332845,8.381823012044606,8998582.320564458,,3415.815092736763,48.90803005503688,164.45318812890193,,,,0.0032037001432058407,399.8164556702776
8.4,330.8861687411322,329.49218765302186,329.21080991530937,324.15363172833736,7.91360664732332,8998519.129207227,,3546.139875297535,48.90509289057214,156.50063446374114,,,,0.003051069530796986,422.68407709563877
8.8,330.3951997976195,329.12201359023624,328.8543829966168,324.0440295248395,7.470248520131975,8998456.422222307,,3679.1948890242115,48.90256784971991,148.85455417943984,,,,0.0029017051058656605,443.9715938888328
9.200000000000001,329.93627894195396,328.7735958032101,328.5191968849262,323.94646626891057,7.049679068620321,8998394.174176555,,3815.152300295195,48.90044639124144,141.49517457178948,,,,0.0027554605801046717,463.47151329013377
9.600000000000001,329.5073868140762,328.4459759968959,328.2043280043873,323.8606354161127,6.649984314357482,8998332.360722402,,3954.2295325519835,48.89872117135634,134.40318502859813,,,,0.0026121953171176623,480.981776511583
10.0,329.106669732257,328.13824413115293,327.9089000872594,323.7862606992477,6.269393888755189,8998270.958523566,,4096.696581247188,48.89738588994854,127.5598015400839,,,,0.0024717764509831004,496.3056708239867
10.4,328.73242852348386,327.8495405243999,327.6320862556012,323.7230983917692,5.906268022939798,8998209.945183232,,4242.885500974197,48.896435353476576,120.9467789179262,,,,0.0023340799127403973,509.2517703468798
10.8,328.3831080417109,327.5790571633486,327.37311034374613,323.67093889417805,5.559085207952705,8998149.299174719,,4393.2023906521545,48.895865536622075,114.5464037002165,,,,0.0021989913004319458,519.634021406298
11.200000000000001,328.0572873604108,327.32603812684727,327.13124732926815,323.62960685448263,5.226431546279969,8998088.999774583,,4548.142347848802,48.89567360389264,108.34149019774036,,,,0.0020664072141389008,527.2721270242597
11.600000000000001,327.7536707088678,327.08977968113794,326.9058234839831,323.5989633803213,4.906990052338074,8998029.026998144,,4708.3089102218255,48.89585796026017,102.31534948558895,,,,0.001936236186524439,531.9920755114222
12.0,327.4710790162284,326.8696293749958,326.6962154547983,323.57890366628607,4.599533189929957,8997969.361537319,,4874.438306611942,48.89641820118211,96.45179735995131,,,,0.0018084010586390555,533.627316883995
0.0,354.54999999999995,0.0,0.0,0.0,0.0,9000000.0,,0.0,0.0,0.0,,,,0.0,0.0
0.4,352.2284495124375,340.4130958826147,339.58553289159397,324.69728906017417,31.39388361109809,8999917.854669608,,1331.4858470049733,48.85665160083753,460.2856437877341,,,,0.008717289026538847,1.7099225136173278e-05
0.8,350.06602380180743,339.504870063879,338.71440787421875,324.4926564597064,29.235406687587954,8999837.263036042,,1417.4915378095527,48.85338277255674,439.6503973730475,,,,0.008394719792858846,2.6577006609482643
1.2000000000000002,348.055052250689,338.61641293261823,337.86232736990166,324.2941706322699,27.22843529979798,8999758.149021033,,1507.4024097885376,48.85026115917675,419.41793249088977,,,,0.008075718398173132,10.310474632376371
1.6,346.1874127934568,337.75264105408763,337.0340199953888,324.1031777861669,25.364340626481635,8999680.438352784,,1601.4238142904014,48.84731641757065,399.6927849862219,,,,0.007760013480806626,22.46205147637278
2.0,344.4548511662209,336.91628020003435,336.2321087616064,323.92044553958357,23.634502127764506,8999604.058899375,,1699.4779142794914,48.844564790671676,380.5321098241328,,,,0.007448547547049609,38.603095412582185
2.4000000000000004,342.8491049597152,336.1094964132591,335.45867712033123,323.746563902635,22.03034157865966,8999528.940889524,,1801.46903050315,48.84201889027159,361.981843644737,,,,0.007142146924131049,58.22042068043409
2.8000000000000003,341.3620136478901,335.33394767882623,334.71532173073075,323.582017385492,20.54336305995787,8999455.017082661,,1907.290012131524,48.8396900043227,344.0760955453966,,,,0.006841485208074735,80.80471556733782
3.2,339.9856097295036,334.5908012652826,334.0031679992896,323.42716907043035,19.165276234513613,8999382.222890118,,2016.8261170218448,48.837587139642764,326.83814896211413,,,,0.006547099434092743,105.85688400374167
3.6,338.7121923795376,333.8807743412844,333.3229091159076,323.28227204294456,17.888072967464268,8999310.496451396,,2129.959592372861,48.83571724418319,310.28134073723476,,,,0.006259398290798572,132.89290975053248
4.0,337.534384210032,333.2041809715876,332.67485111646903,323.1474775246292,16.704088207467294,8999239.778669866,,2246.574037749474,48.83408585361158,294.41013647955015,,,,0.005978674639768627,161.4473840018884
4.4,336.44517283234654,332.56098604627203,332.0589648994512,323.0228561297569,15.606037833877053,8999170.013212658,,2366.5589387085497,48.83269603751288,279.22119435367364,,,,0.005705116323375435,191.0757596793602
4.800000000000001,335.43793830413466,331.9508570301353,331.4749357693195,322.9084050228936,14.587050045181059,8999101.146479843,,2489.8135639461952,48.83155004677872,264.7045920452795,,,,0.005438822315149742,221.3556840524528
5.2,334.5064686744751,331.3732169365075,330.9222144052536,322.804063660437,13.640678484530781,8999033.127548056,,2616.2509522659166,48.830649149183735,250.84494196180685,,,,0.005179815829316744,251.8874727409843
5.6000000000000005,333.6449655647133,330.82729452640086,330.40006518651404,322.7097304376004,12.760904224074125,8998965.908093415,,2745.8018402631214,48.829993944021986,237.62243345326564,,,,0.004928056490521321,282.29392258842273
6.0,332.84804142354,330.31216895247786,329.9076090102538,322.6252701928125,11.942133158952686,8998899.442298263,,2878.4182307714327,48.829584519492435,225.01384847560834,,,,0.004683453657766991,312.2197631091782
6.4,332.11071038421545,329.8268104285856,329.4438624037366,322.55052671846875,11.17918404270489,8998833.686745904,,3014.077154329438,48.82942068860649,212.9934277822391,,,,0.00444587712867547,341.33076650497577
6.800000000000001,331.428374352019,329.3701158926561,329.00777185886943,322.4853313096118,10.4672708687213,8998768.600306876,,3152.7846850957503,48.82950222799981,201.53360974551313,,,,0.004215166125959228,369.31263509608175
7.2,330.7968056481267,328.9409391416747,328.5982428172861,322.4295139485078,9.8019827251253,8998704.144019809,,3294.580218547923,48.82982905483704,190.60566991934385,,,,0.003991137509582848,395.86981634142427
7.6000000000000005,330.2121273128342,328.53811562360283,328.214163470407,322.38290711323157,9.179262601515575,8998640.28096943,,3439.541098806459,48.83040133137608,180.18027270390695,,,,0.003773593486667784,420.72437711380235
8.0,329.6707921279341,328.16048313244494,327.8544246936154,322.3453525563842,8.595383339169416,8998576.976163821,,3587.7881594680193,48.83121961043176,170.2278945481999,,,,0.003562327333756445,443.6148659806854
8.4,329.1695610708187,327.8068981200366,327.51793572863096,322.31670631680186,8.04692412343411,8998514.19641256,,3739.4921542892266,48.83228492317548,160.71917403038245,,,,0.0033571287331805233,464.2953312003282
8.8,328.7054819132777,327.47624899475795,327.203637061506,322.29684197364827,7.530745124311693,8998451.91020696,,3894.881923387267,48.83359893101549,151.6251458541397,,,,0.003157787137072649,482.5343277022146
9.200000000000001,328.27586824543295,327.1674655585519,326.9105094659376,322.2856543334222,7.043965697130261,8998390.087603355,,4054.2539319407774,48.83516394883357,142.91745983322602,,,,0.002964096182520086,498.11429852859015
9.600000000000001,327.8782793416817,326.87952627441746,326.6375810305155,322.28306171120255,6.583941923461339,8998328.700110072,,4217.984485101728,48.836983428864606,134.56851451146875,,,,0.002775856711167608,510.8310734948098
10.0,327.5105010556369,326.61146322980034,326.383931945552,322.28900806957506,6.148246110495052,8998267.720578553,,4386.545038532534,48.839060992463715,126.55155535507645,,,,0.00259287980328709,520.4936793085772
10.4,327.17052798841223,326.3623658135935,326.14869813626154,322.30346381809204,5.734645600090403,8998207.123098813,,4560.522338217166,48.84140116015393,118.84069913585876,,,,0.002414988506876828,526.924236765781
10.8,326.8565468443466,326.13138227426566,325.9310727318073,322.32642725511135,5.341086003135388,8998146.882899329,,4740.6436723887355,48.844009446955795,111.41098348466612,,,,0.00224202119294782,529.9585141794037
11.200000000000001,326.56692107921174,325.9177204417492,325.73030678395776,322.3579254550791,4.965674612676935,8998086.976251384,,4927.810330604799,48.84689223403692,104.23836866561335,,,,0.0020738341884675698,529.4467960772381
11.600000000000001,326.30017687558177,325.7206477189964,325.5457093139424,322.39801458428104,4.606664537440338,8998027.380377749,,5123.14237664042,48.85005681359645,97.2997068365501,,,,0.0019103041387049386,525.2551476581419
12.0,326.0549904100791,325.5394903517312,325.37664666005037,322.44677967895024,4.2624402983313985,8997968.073365493,,5328.039120971752,48.85351248434294,90.57269875165053,,,,0.0017513307058083286,517.267258598059
0.0,321.1204737742297,0.0,0.0,0.0,0.0,8996105.90166127,,0.0,0.0,0.0,,,,0.0,0.0
0.4,321.21587102057043,320.9542174602162,320.8669554924008,319.29339323006707,2.159895459796985,8996157.95927888,,8514.974201492907,48.739276933823696,48.53459098689344,,,,0.0011336339975668434,337.12642535724416
0.8,321.314928218129,321.0412877313529,320.95142583570646,319.3310034793626,2.2279914456414645,8996210.156284828,,8371.269586020971,48.740426265349114,49.98065545766418,,,,0.0011694259408263946,324.117629718743
1.2000000000000002,321.41781598321586,321.1313821154622,321.03883586318375,319.37003482063056,2.2986874038496694,8996262.497131802,,8222.239606336994,48.74162065648132,51.473678706036054,,,,0.0012070847845173103,311.0015290435136
1.6,321.52473076881256,321.22495396043024,321.12962132304426,319.4106060050156,2.372105630488363,8996314.986444278,,8080.227863476355,48.74286250806964,53.023449587881224,,,,0.0012450211206909694,297.3729047597173
2.0,321.6358708343148,321.32201075238424,321.2237943863554,319.4528141645651,2.44833107057093,8996367.62903043,,7938.836024202321,48.74415623745118,54.62736238586871,,,,0.0012840536529621462,283.4765074282434
2.4000000000000004,321.7514481546676,321.4227087071711,321.3215056559296,319.4967090659818,2.5275374218670095,8996420.429884793,,7798.010839313922,48.745503065417,56.28853904301532,,,,0.0013242370296257478,269.3474376670204
2.8000000000000003,321.87168789142123,321.5272184707488,321.42292122149917,319.5423751021975,2.6098737483335412,8996473.394198308,,7657.745885451962,48.74690571303378,58.00951365077063,,,,0.001365602626518465,255.0175099151315
3.2,321.9968293539207,321.6357204192242,321.5282166604765,319.5899018379361,2.6954984179371877,8996526.527367882,,7518.035617624639,48.748367071174684,59.79295525028599,,,,0.0014081825986975698,240.52155353618303
3.6,322.12712705141405,321.7484052497136,321.63757760318396,319.63938413116813,2.7845800698665926,8996579.835006513,,7378.875110418654,48.74989049544795,61.641681990515025,,,,0.001452010108317473,225.89760417699057
4.0,322.2628518001898,321.86547474839205,321.7512005110396,319.6909226500058,2.8772977192917324,8996633.322953975,,7240.260835507936,48.75147915563636,63.55865541494212,,,,0.0014971188678403503,211.18698683757336
4.4,322.40429192706506,321.9871424777096,321.8692933433157,319.7446252448675,2.973841670743866,8996686.997288136,,7102.190506963383,48.75313637062521,65.5469920089813,,,,0.0015435432513780344,196.4345175266272
4.800000000000001,322.5517545943169,322.11363446301533,321.9920762079236,319.8006060232255,3.0744148737765613,8996740.864336912,,6964.662642230333,48.75486584573047,67.60998300004182,,,,0.0015913186690585336,181.6887302666819
5.2,322.7055672209627,322.2451900478509,322.1197822089638,319.85898634911126,3.179233616302213,8996794.93069094,,6827.676896677472,48.75667152719279,69.75109874213206,,,,0.0016404814031923294,167.00202757932578
5.6000000000000005,322.8660790211451,322.3820627560128,322.25265828981713,319.91989535343964,3.288528556405595,8996849.203217,,6691.234117946136,48.758557619371736,71.97399922882401,,,,0.0016910686356767287,152.43086846489774
6.0,323.0336626696291,322.52452120725906,322.3909661288253,319.9834704775354,3.402545846314979,8996903.68907222,,6555.336401776606,48.760528603060806,74.28254521946428,,,,0.001743118479286798,138.03596193926535
6.4,323.20871613062445,322.6728500098519,322.5349829908379,320.049857003877,3.521548894347461,8996958.395719143,,6419.986764901521,48.76258923432857,76.68082108118068,,,,0.0017966703869315244,123.88249143986444
6.800000000000001,323.39166456619574,322.8273510314841,322.6850030314778,320.11921168917996,3.645818183121378,8997013.330941679,,6285.190315876972,48.76474503032855,79.17311621625291,,,,0.0018517641433823777,110.04023985369041
7.2,323.58296246921975,322.98834425134976,322.8413380753997,320.1917006013873,3.775654124302207,8997068.502861982,,6150.953280138445,48.76700130386057,81.76396613582463,,,,0.001908440863041707,96.5838785608178
7.6000000000000005,323.78309596371594,323.1561689506258,323.0043187892487,320.26750064469815,3.9113784439870756,8997123.919958353,,6017.28324965643,48.76936359001574,84.4581622017054,,,,0.0019667429041710983,83.59316277574126
8.0,323.9925852807528,323.33118497727645,323.17429593173455,320.34680020604526,4.053335596282125,8997179.591084223,,5884.189457177461,48.771838068901815,87.26075977358349,,,,0.00202671371507124,71.15313816958185
8.4,324.211987471674,323.5137739074256,323.3516414642066,320.42979863508276,4.201895331601065,8997235.525488276,,5751.68247709757,48.77443131189327,90.17710655622255,,,,0.002088398346648534,59.35438061660034
8.8,324.4418992708253,323.70434063783745,323.5367501686153,320.51671076182475,4.357453300772136,8997291.732835762,,5619.775129262072,48.777150366416826,93.21282835424888,,,,0.0021518425156931663,48.29319178667728
9.200000000000001,324.682960271832,323.90331448396995,323.7300406599736,320.60776443102793,4.520434826199676,8997348.223231079,,5488.481686254329,48.78000337121155,96.37387668474308,,,,0.002217093746193555,38.07186978153909
9.600000000000001,324.9358563438299,324.11115070225605,323.93195689192646,320.70320202898944,4.691297133178182,8997405.007241718,,5357.818204652507,48.78299793057926,99.66653808641544,,,,0.00228420119983435,28.79893259867597
10.0,325.20132336567985,324.3283318418523,324.1429694486002,320.8032801067535,4.870532815905676,8997462.095923675,,5227.802294886015,48.78614228609377,103.09746744369147,,,,0.002353216303813754,20.589363222682046
10.4,325.4801511836473,324.5553695646239,324.36357738494644,320.9082740257763,5.058671371986861,8997519.500848375,,5098.453907190805,48.78944548435502,106.673676646602,,,,0.0024241918772689467,13.56484269740931
10.8,325.7731879441493,324.79280597145646,324.59430947905236,321.0184755713767,5.256283646125723,8997577.234131187,,4969.794927730752,48.79291730816394,110.40257575232606,,,,0.0024971830230996403,7.854014387546126
11.200000000000001,326.0813448024103,325.0412150554146,324.8357256282401,321.1341932431253,5.463986103709203,8997635.30846166,,4841.849094467176,48.7965687138903,114.29200473389247,,,,0.0025722476924993336,3.592741024786408
11.600000000000001,326.40560099227605,325.3012043031815,325.08841841918627,321.25575429563173,5.682444955715994,8997693.73713559,,4714.642226704737,48.80040959406603,118.35025088449011,,,,0.002649446773365076,0.9243679913768865
