x,TH_final,TW_H_final,TW_C_final,TC_final,dT,PH,dp_amb,alpha_i_final,alpha_o_final,Q3,mdot_vec,Tower inlet diameter,Air face velocity,Bu_c,Bu_j
0.0,354.54999999999995,0.0,0.0,0.0,0.0,9000000.0,20.726077110109113,0.0,0.0,0.0,0.11787640394160807,0,3,0.0,0.0
0.4,352.1175086012817,339.47840016486646,338.6219850221444,323.40965310048176,32.64067722474175,8999919.796704382,20.54827689798819,1290.468330814349,49.71768338848028,476.3330399850002,0.11962359605672984,,,0.009742351140555489,1.8913243003640627e-05
0.8,349.84020428583494,338.450286186812,337.6269555426617,322.9986588602841,30.591870705144686,8999841.189316403,20.41407195843895,1371.9977883225088,49.70547011933605,457.93163743748016,0.11793585620496935,,,0.009512093945630894,2.9782585873495613
1.2000000000000002,347.71095653380485,337.44453100215173,336.6535146448282,322.5959195538712,28.688870384151755,8999764.109621707,20.324473700739805,1457.4577537712162,49.69347821609495,439.95862212127247,0.11956414379477337,,,0.009286148766862923,11.717184138506918
1.6,345.7224198179362,336.46494318980064,335.7053936382333,322.20379833454257,26.922319151048782,8999688.491040098,,1546.8170879843774,49.68179435098144,422.45697077651766,,,,0.009064761047416095,25.915298062612468
2.0,343.8671166256425,335.5144968903233,334.78549635220656,321.82394492349914,25.2833807359782,8999614.268819278,,1640.0149946357192,49.670475829094734,405.4657900722758,,,,0.008848291596503605,45.26529131640788
2.4000000000000004,342.1375341789299,334.59553361411525,333.8961076072037,321.4576219743161,23.76347553228561,8999541.380202131,,1736.9692472882734,49.659565658025286,389.0166106555884,,,,0.008637049947216984,69.45915649847369
2.8000000000000003,340.52621924159087,333.70988801821755,333.0390231304337,321.1059196232944,22.354154999348452,8999469.764556617,,1837.5848680950357,49.649106324059645,373.13108501655654,,,,0.008431181368211646,98.19153482917535
3.2,339.0258545682319,332.8588805589206,332.2155391541829,320.76968377448446,21.047264272464872,8999399.363467978,,1941.7555494247574,49.639126504770374,357.82268643983605,,,,0.008230714096845688,131.16203204279145
3.6,337.62932166396814,332.04335626039284,331.4264896563412,320.4495328022234,19.835002719917725,8999330.120797811,,2049.3668322410217,49.62965297159055,343.0975587905802,,,,0.008035571731873423,168.0763221572538
4.0,336.3297506245682,331.26373094933274,330.67229097225635,320.14587155362676,18.70997128815901,8999261.982713329,,2160.299183633934,49.620701001671904,328.9554191642814,,,,0.007845587353209156,208.64623696030372
4.4,335.12055820083674,330.52004295252044,329.9529919031644,319.8589112344622,17.66519697954874,8999194.897690311,,2274.431013784661,49.61228340556674,315.3904417310588,,,,0.007660516922309278,252.58898621797135
4.800000000000001,333.9954755548703,329.81200868978823,329.2683279085342,319.5887047501773,16.694142104200637,8999128.816493098,,2391.641837812893,49.604403207118175,302.39203674480365,,,,0.007480048776406992,299.62555122828024
5.2,332.94856617554757,329.13907264755574,328.6177693997054,319.33516190821456,15.7907115184845,8999063.69213513,,2511.8145728946106,49.597064093545534,289.94578493587454,,,,0.0073038207096311715,349.4787640845724
5.6000000000000005,331.97423600448275,328.50045998537496,328.0005731359156,319.09808123269625,14.949242532929986,8998999.47982342,,2634.8383195456386,49.59025995328298,278.03411074251295,,,,0.007131427654491107,401.8707622906695
6.0,331.0672367378719,327.89522365021986,327.4158281345932,318.8771730375357,14.164488714291792,8998936.136889957,,2760.6107694051466,49.58398547982181,266.6369519843405,,,,0.006962430903936344,456.5201859880233
6.4,330.22266335446193,327.32228598188055,326.8624961296834,318.67208111380387,13.431604515724189,8998873.622712912,,2889.040243025583,49.578232980351125,255.7323978721734,,,,0.006796368100795115,513.1393037804547
6.800000000000001,329.4359472793872,326.78047705395784,326.33944905450176,318.4824047535874,12.746121381248713,8998811.898630261,,3020.0479922943437,49.57299077027957,245.29716627784072,,,,0.006632758492560204,571.4308359249598
7.2,328.70284603301565,326.26856693659744,325.845500499798,318.3077168674455,12.103923794308628,8998750.927847972,,3153.5702547629166,49.56824788333065,235.30705130627746,,,,0.006471109072559477,631.0848028827595
7.6000000000000005,328.01943017223437,325.7852924156279,325.37943169629125,318.1475735683048,11.501227159581276,8998690.675344788,,3289.5600810344254,49.56399415404009,225.73733297055617,,,,0.00631092136653139,691.7755465633747
8.0,327.3820687456218,325.32938162543644,324.94001578741415,318.00153778339126,10.934547882689913,8998631.107775124,,3427.990142031781,49.5602169492476,216.5629774940921,,,,0.006151690957985497,753.1581691873491
8.4,326.78741334681104,324.89957126186613,324.5260344597632,317.869179314769,10.40068324223796,8998572.193371372,,3568.854593187748,49.55690487580476,207.7589612860991,,,,0.005992914559688254,814.8657604018865
8.8,326.2323815818516,324.4946214771698,324.1362924966455,317.75008514316386,9.896687949744774,8998513.901846806,,3712.1716338062733,49.5540474528113,199.30046082157872,,,,0.005834093081543348,876.506493140948
9.200000000000001,325.71414058557554,324.11332865249176,323.7696304250819,317.64387324443067,9.419847743834737,8998456.204299787,,3857.987081594097,49.551635210696766,191.16292242176576,,,,0.005674730846740868,937.6603200614559
9.600000000000001,325.2300905249088,323.75453322524794,323.42493203443564,317.55019045282285,8.967661982635889,8998399.0731199,,4006.377355056095,49.549659733555316,183.32223398834063,,,,0.005514341136170182,997.8766805734426
10.0,324.77784861922794,323.4171265567039,323.1011311613699,317.46871896665556,8.537822411736158,8998342.4818965,,4157.453816166298,49.54811419775616,175.75477096778988,,,,0.005352447466391146,1056.6719152892476
10.4,324.3552337572087,323.10005528753413,322.7972159402944,317.3991785187585,8.128195654046806,8998286.405329958,,4311.3675982159475,49.54699255520787,168.43745479667956,,,,0.005188586825443054,1113.5272624521072
10.8,323.96025186904575,322.8023242193687,322.51223163451715,317.34132785866956,7.736806464463939,8998230.81914581,,4468.315525766486,49.54629013303559,161.3477809352445,,,,0.005022312796235031,1167.8872375179624
11.200000000000001,323.59108223041045,322.522998392623,322.2452827627951,317.2949694406961,7.361820478086884,8998175.700011836,,4628.547824940692,49.54600406353226,154.46379172677197,,,,0.004853197232274743,1219.158110825893
11.600000000000001,323.24606457337785,322.26120326544,321.9955332261617,317.2599465147686,7.001532026444295,8998121.025458075,,4792.376743506693,49.546132973421614,147.76410546574817,,,,0.00468083579504259,1266.7077338813413
12.0,322.92368707662536,322.01612429843925,321.7622058882177,317.2361436573624,6.654352297474702,8998066.773799801,,4960.187417313112,49.546676959989036,141.22791884639577,,,,0.004504853396020142,1309.8661663621983
0.0,354.54999999999995,0.0,0.0,0.0,0.0,9000000.0,,0.0,0.0,0.0,,,,0.0,0.0
0.4,351.8207010630206,336.38600393673624,335.4092328765597,317.97650105131646,38.30862652105782,8999917.746457327,,1213.894762206991,49.48384095414474,543.2742898298472,,,,0.012277257292523028,2.2971639035490527e-05
0.8,349.27540860848035,335.46862856369864,334.5299164031401,317.77531261654326,35.75174904918413,8999837.333471732,,1299.6555620074841,49.48058128244731,522.1061548290181,,,,0.011989966344666515,3.628053089760128
1.2000000000000002,346.90704096254734,334.560810363892,333.65982278506306,317.57750049746505,33.373020337062144,8999758.68019897,,1390.2354195106716,49.47741461330388,501.12396547456945,,,,0.011705061316569598,14.310128357490813
1.6,344.7075794036116,333.66933463466614,332.8054763350515,317.384939715101,31.163844313571985,8999681.706746606,,1485.8565936694843,49.47438359947348,480.47287985306707,,,,0.011421879041460397,31.715372988142096
2.0,342.66847212742726,332.7984722816596,331.97098505609176,317.1988300481232,29.115251583102577,8999606.334680965,,1586.4700208146912,49.471516915903834,460.24350346845074,,,,0.011141555646338844,55.48420221543307
2.4000000000000004,340.78080683612666,331.9518463484989,331.15982801871047,317.0200777656851,27.21806220067151,8999532.487409834,,1691.9875798455282,49.46883183686951,440.51591329840613,,,,0.010865142800747794,85.2385970899669
2.8000000000000003,339.0354844999594,331.13252537596145,330.37495590903103,316.84952379852945,25.462802421388346,8999460.090509612,,1802.2925306583966,49.46634748668895,421.3556594064834,,,,0.010593428826309263,120.59031710267617
3.2,337.4233723649969,330.3429655740392,329.61873174665317,316.68786149040864,23.839959048793048,8999389.0719912,,1917.243118144835,49.46408012396023,402.81457374788414,,,,0.010326983797977246,161.14754713142779
3.6,335.93543794810853,329.58502096814505,328.89294059419535,316.53563799014125,22.340121971673796,8999319.36250598,,2036.6784781146312,49.46204317451572,384.93101301123147,,,,0.010066163403319195,206.51941917251918
4.0,334.5628620919429,328.85997344148103,328.198818319365,316.3932581585916,20.954105441322724,8999250.89549363,,2160.424630349889,49.460247317148635,367.7305707400089,,,,0.009811122670824035,256.3185029579488
4.4,333.2971307012569,328.16858119814225,327.53709828519544,316.2610036318453,19.673040632562902,8999183.607275262,,2288.3005959283273,49.45870087821681,351.2270634000582,,,,0.009561831949308082,310.16133656399626
4.800000000000001,332.13010526741573,327.5111362678465,326.90806651768406,316.13904479712846,18.488450433260596,8999117.43709682,,2420.12404331022,49.4574100854561,335.42383020979634,,,,0.009318100051209803,367.66737417376095
5.2,331.05407354842265,326.8875287095808,326.3116233569772,316.0274567852344,17.392301804030524,8999052.327128777,,2555.716535068722,49.45637939990357,320.31515285422427,,,,0.009079598397185364,428.45663116354115
5.6000000000000005,330.061782382883,326.29731263675774,325.74734685754123,315.92623588147404,16.3770390758786,8998988.222428717,,2694.908259557201,49.45561206942219,305.88771547098213,,,,0.008845885365683134,492.14637059093917
6.0,329.14645529119235,325.7397722407123,325.2145563966855,315.83532227623533,15.435596285219788,8998925.070873283,,2837.5426052983785,49.45510999439497,292.12194781847757,,,,0.008616425547950982,558.3468976507877
6.4,328.3017970004935,325.2139805735509,324.7123689673142,315.7546099470816,14.56140412087143,8998862.823065903,,2983.479738106499,49.4548744844207,278.9934102867828,,,,0.008390614054326853,626.6572261034888
6.800000000000001,327.5219877980937,324.718854534923,324.2397520805703,315.6839631177643,13.748380239821813,8998801.432226202,,3132.6001979676244,49.45490656534317,266.47395306311535,,,,0.008167793864531134,696.6603454398137
7.2,326.8016700360274,324.2532025606399,323.7955695935919,315.6232288563401,12.99091300310738,8998740.854066234,,3284.8081648475204,49.455207166991016,254.53275113063486,,,,0.00794727209642206,767.9184983068949
7.6000000000000005,326.13592895709246,323.8157654500463,323.3786209684121,315.5722483177826,12.283838875437482,8998681.046657974,,3440.0346811890768,49.455777377332666,243.13717664727537,,,,0.007728333616928794,839.9685203980407
8.0,325.52026961778876,323.4052500057642,322.9876735740644,315.530865369085,11.622417138267622,8998621.970295766,,3598.240802555073,49.45661878722372,232.25354294047693,,,,0.007510253796066154,912.3175019096363
8.4,324.95059159549334,323.0203574079902,322.62149009109004,315.49893629318797,11.002298769989636,8998563.587356647,,3759.42143568197,49.45773349736866,221.8476438873183,,,,0.007292306045777499,984.4383724828201
8.8,324.4231624512723,322.65980454500635,322.2788489452712,315.4763338860092,10.419499040365906,8998505.862160865,,3923.6090579171587,49.45912405060587,211.88525268932094,,,,0.00707377241694104,1055.7662978822643
9.200000000000001,323.93459100694355,322.3223411248472,321.95856080084354,315.462953435327,9.870367393512254,8998448.760834396,,4090.878367282744,49.46079394680078,202.3324658513605,,,,0.006853950750425645,1125.6953208040052
9.600000000000001,323.48180111643245,322.00676252491365,321.6594809546466,315.45871669238977,9.351558245395381,8998392.25117472,,4261.351823273466,49.46274760352385,193.15595655539687,,,,0.006632161184776571,1193.5755378996882
10.0,323.06200638757207,321.7119189188113,321.38051812005426,315.4635753540089,8.860003724070737,8998336.302520765,,4435.206232280134,49.46499041533528,184.32316531851896,,,,0.006407753042074317,1258.7110578163167
10.4,322.6726862829047,321.4367220696722,321.12064106727547,315.4775125495845,8.39288571809243,8998280.885627532,,4612.681317027702,49.46752888792971,175.80238514395347,,,,0.006180109232473751,1320.3583120265273
10.8,322.31156365423925,321.180148962642,320.87888207652185,315.500544838657,7.947613085670582,8998225.972545728,,4794.089638432488,49.47037061936921,167.56286122021746,,,,0.005948654393820227,1377.725914742812
11.200000000000001,321.97658392157035,320.94124410763015,320.6543392066776,315.53272370258634,7.521798525121483,8998171.53650654,,4979.829515868213,49.47352435698871,159.574809948356,,,,0.005712861208345658,1429.9752926515357
11.600000000000001,321.6658958703473,320.71912003607997,320.4461767559265,315.5741362361311,7.113238842362762,8998117.551811546,,5170.400942333278,49.47700084384011,151.80943898975127,,,,0.005472259119233613,1476.223078703218
12.0,321.3778341755582,320.512957320766,320.2536253867122,315.62490339769147,6.719894542827376,8998063.993727593,,5366.426744977803,49.48081092622096,144.23888875355684,,,,0.005226440787808071,1515.5444100963982
0.0,315.84243071283566,0.0,0.0,0.0,0.0,8996467.27689112,,0.0,0.0,0.0,,,,0.0,0.0
0.4,315.94800862841987,315.42963101090226,315.2363884344069,311.7769469695884,4.73177502979587,8996509.42138028,,8665.249484927726,49.332564422380976,107.48037916830937,,,,0.009060851078853956,2625.043666519384
0.8,316.05734674567907,315.52315960981116,315.32709947128865,311.81729895658935,4.807813582957408,8996551.819625605,,8536.207559727003,49.333851114602304,109.04749049733329,,,,0.009011574919606361,2433.1235411144676
1.2000000000000002,316.1706453675926,315.61933804085703,315.420386370435,311.8589083994384,4.886689830435785,8996594.477056198,,8396.981259723694,49.33517953130182,110.65574334647847,,,,0.008971145131821205,2251.547979585081
1.6,316.28814264527836,315.71928475183313,315.51731984716497,311.90199202391403,4.968557827894131,8996637.399299785,,8265.960987218456,49.336552325648015,112.33168641321292,,,,0.008921002096501885,2075.564945132612
2.0,316.41007552316535,315.8227223916897,315.61764610361956,311.94671831671053,5.053411443824871,8996680.592202272,,8133.756962999594,49.33797945613414,114.06221944435339,,,,0.008870573162852485,1907.5447225999644
2.4000000000000004,316.536699356816,315.92982171132417,315.7215262653661,311.9930767965258,5.141538341060311,8996724.061822973,,8000.338318453514,49.33945920277872,115.85269603963813,,,,0.00882033259324275,1747.4849207149073
2.8000000000000003,316.66828680577134,316.0407818917206,315.82915397940536,312.04116269478,5.233124880750893,8996767.814448968,,7865.756842415656,49.34099472215407,117.70619397256309,,,,0.00877043385875505,1595.295682677586
3.2,316.80512932735775,316.1558145369673,315.9407349759972,312.0910772769615,5.328370517035069,8996811.85660727,,7730.066798868581,49.34258937113968,119.62598060880545,,,,0.00872101829922802,1450.8766482886335
3.6,316.94753880197635,316.2751446693445,316.0564880367764,312.14292837961654,5.427488898284139,8996856.195077756,,7593.325008623509,49.34424681809039,121.61552672236364,,,,0.00867221586833872,1314.1189714212785
4.0,317.09584930063056,316.39901179213155,316.1766460320772,312.19683099881433,5.530709060469462,8996900.83690689,,7455.590860648335,49.34597135299057,123.67852143588156,,,,0.008624146193116643,1184.9071916587761
4.4,317.2504190022117,316.5276710432593,316.3014570515281,312.25290789622863,5.638276738311447,8996945.7894223,,7316.926340948221,49.347766510338424,125.8188852210976,,,,0.008576919574459465,1063.1208975358907
4.800000000000001,317.41163227837393,316.66139439069434,316.4311855647553,312.3112903050231,5.750455765539243,8996991.060248284,,7177.39588779655,49.349636651168325,128.0407882499509,,,,0.00853063867769081,948.6362818995979
5.2,317.57990195862305,316.80047190968355,316.5661136676327,312.3721184225429,5.867529736377378,8997036.657322297,,7037.066234525768,49.35158644151697,130.3486688491607,,,,0.008485400253369697,841.3274842163258
5.6000000000000005,317.75567179313293,316.9452131279343,316.706542388969,312.43554189807435,5.989803839001752,8997082.588912513,,6896.006193695267,49.35362087353157,132.74725424380213,,,,0.008441297066092016,741.0677564645092
6.0,317.9394190948947,317.09594864225653,316.85279331404035,312.5017228274004,6.117605605505389,8997128.863636503,,6754.287014923851,49.35574533850557,135.24155631344672,,,,0.008398417331311067,647.7302613987915
6.4,318.13165764696504,317.2530314161925,317.00520979614726,312.57083410286134,6.251288309788265,8997175.490481116,,6611.981499833581,49.357965600609226,137.83692022787503,,,,0.008356849382895574,561.1891973426087
6.800000000000001,318.3329408440464,317.4168384770829,317.16415863631346,312.64306120117925,6.3912326502832,8997222.478823695,,6469.164081649238,49.36028785087588,140.53903385535185,,,,0.008316682161974728,481.3203893432498
7.2,318.5438650954664,317.5877726506276,317.3300317896181,312.71860297156627,6.537848889178633,8997269.838454666,,6325.910756828535,49.36271875251101,143.3539433762917,,,,0.008278006260564292,408.00187898492015
7.6000000000000005,318.76507353987165,317.766264228208,317.5032479701529,312.7976729244623,6.691580009915469,8997317.579601634,,6182.298658180713,49.36526641866997,146.28808801419157,,,,0.00824091652866608,341.1145296574859
8.0,318.9972600887849,317.9527727825652,317.68425441688413,312.880498929261,6.852905131351463,8997365.712955106,,6038.405851001731,49.36793760659366,149.34832774142512,,,,0.008205513677201647,280.54250098781034
8.4,319.241173781261,318.14778931068014,317.8735290380339,312.9673273801148,7.022341239939635,8997414.249695906,,5894.311697580942,49.37074056485659,152.54194244117755,,,,0.008171903192053107,226.17362758031817
8.8,319.4976235521551,318.35183802481635,318.0715821158561,313.0584220800246,7.2004479236151155,8997463.201524423,,5750.09634374575,49.373684153074585,155.87667990906485,,,,0.008140198361269606,177.89997141166037
9.200000000000001,319.76748342069567,318.5654783794985,318.27895828021263,313.1540652358644,7.387831471625873,8997512.580691816,,5605.840646217961,49.37677786084873,159.36078551417793,,,,0.008110521282867086,135.61829085008443
9.600000000000001,320.0516981276717,318.7893071864365,318.496238576536,313.2545589401955,7.585149178286656,8997562.400033325,,5461.626218044734,49.380031850926514,163.0030284038311,,,,0.008083003340606233,99.2305448616468
10.0,320.3512893021981,319.0239605273512,318.72404228569394,313.36022470185407,7.793115261915943,8997612.673003837,,5317.535145392965,49.38345771310265,166.81275309435512,,,,0.008057787437876116,68.64447647529913
10.4,320.66736208700155,319.27011628252677,318.9630294717193,313.47140868470746,8.012504440070586,8997663.413715832,,5173.65070943082,49.38706693731364,170.799868885395,,,,0.008035025140306797,43.77420771796974
10.8,321.00111236579977,319.5284960111998,319.21390276868976,313.58847892714573,8.244158954658019,8997714.636979789,,5030.057167589059,49.39087136071769,174.97490183587533,,,,0.008014878757634073,24.540984737229845
11.200000000000001,321.35383464972983,319.7998667096939,319.4774090361338,313.7118268229803,8.488996481374215,8997766.358347308,,4886.839583747297,49.39488413704207,179.3490519092754,,,,0.00799752342825641,10.873967332826572
11.600000000000001,321.72693065065283,320.08504255439624,319.7543410184165,313.8418658710609,8.748018470892987,8997818.594157096,,4744.083903310153,49.39911916960998,183.93423946413645,,,,0.00798314811691035,2.711087079771619
