x,TH_final,TW_H_final,TW_C_final,TC_final,dT,PH,dp_amb,alpha_i_final,alpha_o_final,Q3,mdot_vec,Tower inlet diameter,Air face velocity,Bu_c,Bu_j
0.0,354.54999999999995,0.0,0.0,0.0,0.0,9000000.0,20.648344584595144,0.0,0.0,0.0,0.11789851609262605,0,3,0.0,0.0
0.4,352.1582899069281,339.85921374074474,339.01719023763235,324.0453956720887,31.988237523658313,8999919.755944759,20.474947688961628,1302.6693137140169,49.64100404356079,468.3284951475505,0.11960148390709728,,,0.009409997395647931,1.8346197175708473e-05
0.8,349.91909673437357,338.8340746294452,338.02494877170227,323.63452465327117,29.979012747113188,8999841.080965668,20.345481650849617,1384.116064171216,49.62882909082164,450.0310192564495,0.11799010931302871,,,0.00917650087981564,2.884969137359967
1.2000000000000002,347.8252937180973,337.8321633828466,337.0551445771667,323.23238129517165,28.112524497553522,8999763.90743511,20.261329869085,1469.4061318889912,49.6168908431575,432.1732666816934,0.1195098906868667,,,0.008947163131614491,11.333898797037781
1.6,345.86957254361766,336.8571035718728,336.11132920860985,322.8412411523726,26.379510302939877,8999688.169408048,,1558.5052841086733,49.60527128373256,414.7952924740804,,,,0.008722210014127032,25.03032137191502
2.0,344.04452214479596,335.91170126112274,335.1962435449663,322.46267782433677,24.771243779203587,8999613.802802732,,1651.3511295494197,49.59402796735314,397.9333525472011,,,,0.008501976344570027,43.65204569548617
2.4000000000000004,342.34272076485973,334.99814530041556,334.31202457707957,322.09789146109637,23.279273515041268,8999540.74555543,,1747.8613932175638,49.58320054126732,381.61629055341734,,,,0.008286746907598569,66.87607295306076
2.8000000000000003,340.75682544329726,334.1181292724082,333.4603311260855,321.74790773673,21.89530345550486,8999468.9377388,,1847.9422789266212,49.57282752412148,365.86344064401464,,,,0.008076654468142909,94.38182877518929
3.2,339.2796436323733,333.2728489388779,332.6423382799099,321.41351331328934,20.611343311809776,8999398.321643986,,1951.4898453160106,49.562938951570715,350.68630148661777,,,,0.007871724383449803,125.85342762166871
3.6,337.90419141749044,332.46304181572356,331.8587753909774,321.0952723134511,19.41976776985973,8999328.841831015,,2058.392988080956,49.55355625841258,336.0894135474538,,,,0.007671887797629018,160.9808332176629
4.0,336.623739571991,331.6890358278234,331.1099732492473,320.7935461801362,18.31335086014633,8999260.445150813,,2168.5365741202068,49.54469677476358,322.07118333259206,,,,0.007476992551082176,199.46003025074884
4.4,335.43184825754633,330.9507999121506,330.39591310110706,320.50851179375144,17.2852912110867,8999193.080742197,,2281.804309344394,49.53636844731085,308.6247643397564,,,,0.00728681656466015,240.99242167141927
4.800000000000001,334.3223915289251,330.24799561987413,329.7162766993558,320.2401882951101,16.329222229037498,8999126.700007364,,2398.0813875651174,49.528576906549496,295.73892051899423,,,,0.007101081290419166,285.2836309144977
5.2,333.289573261538,329.5800302093388,329.07049811057993,319.9884678945523,15.439208099975247,8999061.256569155,,2517.257325273336,49.52132126521841,283.3987414504438,,,,0.006919460291024865,332.0416943936969
5.6000000000000005,332.3279352461965,328.94610392776775,328.4578095910931,319.75312912458924,14.60973857277827,8998996.70621326,,2639.228162089669,49.51459716072201,271.58642370194275,,,,0.0067415919777088105,380.9750604759625
6.0,331.4323591735876,328.34525664017593,327.87728718620355,319.5338750596573,13.835709392026445,8998933.006818354,,2763.8990477122225,49.50839980618913,260.28184406914306,,,,0.006567085619612539,431.7901272741619
6.4,330.5980631287804,327.77640671210736,327.3278884552509,319.3303407699813,13.112409085566469,8998870.11827685,,2891.186076609596,49.50271830705467,249.46320319653984,,,,0.006395532184090012,484.1889081826183
6.800000000000001,329.8205942431264,327.2383884786099,326.80848921830045,319.14212618744205,12.435490717150572,8998808.002408694,,3021.0188180242426,49.49754260440419,239.1074273962774,,,,0.0062265071869152065,537.8662375219158
7.2,329.09581783704965,326.7299811480489,326.31791154055867,318.96879960427407,11.800954247177685,8998746.622870324,,3153.3418957977233,49.49286337128548,229.19067990626743,,,,0.006059580161682306,592.5074417485017
7.6000000000000005,328.4199046459741,326.2499372344432,325.8549517764305,318.8099247087572,11.20511564114662,8998685.945060527,,3288.11787439842,49.48866730515003,219.68857694969054,,,,0.005894313673116247,647.7852965727868
8.0,327.78931609329356,325.79700231210165,325.41839963041974,318.6650644404987,10.644587791083381,8998625.93602469,,3425.328934003084,49.48494302901055,210.57657359304747,,,,0.005730271409643987,703.357806065387
8.4,327.2007886233284,325.369932888359,325.00705564971366,318.5337907262057,10.116256192998776,8998566.564358803,,3564.979377141193,49.481679500839626,201.83017513351456,,,,0.005567020779190074,758.8657433602077
8.8,326.6513177442946,324.96751158509494,324.61974621545244,318.41570054961335,9.617252165142816,8998507.800114062,,3707.098935707177,49.478866718454235,193.425042922234,,,,0.00540413251927224,813.9299142357231
9.200000000000001,326.1381417404706,324.58855685649365,324.2553328787336,318.3104138057627,9.144935553505718,8998449.614702873,,3851.7453766582253,49.47649563711433,185.3372067035419,,,,0.00524118651208503,868.1493494352135
9.600000000000001,325.65872571889366,324.23193186436964,323.9127211290447,318.21758144641313,8.696872335081366,8998391.980806865,,3999.0085119080863,49.47455711631423,177.54312410104856,,,,0.005077772418214033,921.0991110636174
10.0,325.21074606035154,323.89655027412897,323.5908660345185,318.13688781245406,8.270816346095899,8998334.87228731,,4149.0144405463,49.4730440214065,170.0197671365624,,,,0.004913492797155627,972.3286860319785
10.4,324.79207563918277,323.5813812009141,323.28877720651855,318.0680582616335,7.8646889664764785,8998278.264098171,,4301.9314160947615,49.47195062550331,162.74461205868164,,,,0.004747963124340843,1021.360115056301
10.8,324.4007696230307,323.2854510785407,323.00552051496936,318.0108552375464,7.4765662598785525,8998222.132201947,,4457.975678027374,49.4712725471469,155.695724765617,,,,0.004580817222326227,1067.6874478980658
11.200000000000001,324.0350521680148,323.00784544978546,322.7402199100046,317.9650815575381,7.104662829372728,8998166.453488462,,4617.4195862457,49.47100684883916,148.85174329154472,,,,0.0044117091871191715,1110.776051944719
11.600000000000001,323.69330399828874,322.7477095414405,322.4920580170099,317.930581267988,6.747318036347622,8998111.205696544,,4780.601465728012,49.471152075536914,142.191866764551,,,,0.0042403165811327895,1150.0626481419574
12.0,323.3740508717648,322.50424800174596,322.26027589944067,317.9072397695701,6.4029838166793525,8998056.36733853,,4947.9377990595385,49.4717082636813,135.69584124172275,,,,0.004066344454068607,1184.9561614829595
0.0,354.54999999999995,0.0,0.0,0.0,0.0,9000000.0,,0.0,0.0,0.0,,,,0.0,0.0
0.4,351.8622440405618,336.82423612169055,335.8627343333201,318.6864191875227,37.58081015483839,8999917.75950747,,1225.3688717126277,49.41105716020206,534.7816111548477,,,,0.011856730094848493,2.2306405499260664e-05
0.8,349.3560442508025,335.9057303398441,334.98229168709423,318.4848364938041,35.06424351835375,8999837.330086822,,1311.2047476579414,49.40780986304302,513.611120115425,,,,0.011561689952969505,3.5169435938552986
1.2000000000000002,347.02421153913895,334.997924884146,334.11217207196654,318.2869601621923,32.723132904411784,8999758.63121591,,1401.7670845764223,49.40466383922973,492.6504783335171,,,,0.01126882582195457,13.847012204512096
1.6,344.8586744968671,334.1074182248439,333.258720097029,318.0946045034627,30.548840506725128,8999681.583426842,,1497.2744486504039,49.40165904766621,472.040881909587,,,,0.010977517010027804,30.631477161963048
2.0,342.8508762275892,333.23832577076587,332.4258944854151,317.9089293056696,28.532391925560773,8999606.10879532,,1597.6733131323522,49.398822081889115,451.8694785034118,,,,0.01068886523879051,53.48300210997054
2.4000000000000004,340.9919423012423,332.3941161656337,331.6170263676267,317.73080441847674,26.664639622783795,8999532.131306158,,1702.8732575584975,49.39617052523593,432.21275214802995,,,,0.010403887547518951,81.99579720397223
2.8000000000000003,339.2728482739544,331.5777043702091,330.83491903416103,317.5610315604173,24.936186964699743,8999459.577163206,,1812.757214932113,49.393722588281555,413.1328131842183,,,,0.010123352947292146,115.75376490168401
3.2,337.6845661160791,330.7914029143393,330.0817976063021,317.40026913876164,23.337629484719628,8999388.375038784,,1927.1850930482783,49.39149369833954,394.6782777411441,,,,0.00984782497709755,154.33712886778133
3.6,336.218191265612,330.036935443722,329.35932189402513,317.2490271966932,21.85969286889201,8999318.456264524,,2045.9994342806629,49.38949644318422,376.88465086858054,,,,0.009577668696804114,197.32708348191815
4.0,334.86504917649575,329.31547175827137,328.6686201492702,317.10768308905256,20.493342487061113,8999249.754965793,,2169.0313771085985,49.38774139419611,359.77504131945375,,,,0.009313061795827339,244.30847882096774
4.4,333.6167808635708,328.62767640980337,328.0103357535738,316.9764936136125,19.22987298517728,8999182.208143413,,2296.106454820619,49.386235792600914,343.361223831616,,,,0.009054012473549774,294.87074074373277
4.800000000000001,332.4654079573711,327.9737663048887,327.384682470014,316.8556070332863,18.060977170039735,8999115.755707817,,2427.0500032358286,49.38498521388328,327.6449468296067,,,,0.008800382062252794,348.60733603703346
5.2,331.4033788507372,327.3535744800888,326.79150573231726,316.7450806959604,16.978792473330145,8999050.340471648,,2561.6922683777166,49.38399369051647,312.6193150884402,,,,0.008551907296350338,405.1140218826163
5.6000000000000005,330.4235980416941,326.7666155245108,326.23034558990275,316.64490223758884,15.975927736459482,8998985.908107093,,2699.873191565539,49.383264026037104,298.270167709359,,,,0.008308221119448586,463.9861295743142
6.0,329.5194407799964,326.21214710693994,325.700495703777,316.55500057607384,15.045479395987229,8998922.40707437,,2841.446451639901,49.382798028850125,284.57748603853867,,,,0.008068876068624846,524.815386398612
6.4,328.6847557293694,325.68922837360094,325.20105948947094,316.47526336125367,14.181031377789509,8998859.788527526,,2986.2833124500025,49.38259686584761,271.5166477639805,,,,0.00783336324704305,587.186300414675
6.800000000000001,327.91385811882054,325.19677253354865,324.7310006926007,316.4055497501636,13.376644693597939,8998798.006203087,,3134.2762281180317,49.382661398158575,259.05954472274885,,,,0.007601128816739847,650.6723385199051
7.2,327.20151557347106,324.73359223916145,324.28918696894414,316.34570398154665,12.626841261679488,8998737.016296452,,3285.342131995184,49.38299241028221,247.17558439165404,,,,0.007371589707843365,714.8321899137594
7.6000000000000005,326.54292873802154,324.29843871078293,323.8744275290302,316.2955664919733,11.926580659897468,8998676.77733027,,3439.4258479182777,49.38359087175691,235.83251298921073,,,,0.007144145792029696,779.2060562627881
8.0,325.9337083297374,323.890033777281,323.48550390548723,316.2549807166023,11.271235043673869,8998617.250018267,,3596.5034567733856,49.38445809544253,224.997123566591,,,,0.006918191589944307,843.3122899615325
8.4,325.36985011174056,323.5070962700861,323.12119535911194,316.2238016044187,10.656560606489393,8998558.397127349,,3756.58611243036,49.3855959212048,214.63580567113087,,,,0.006693125112778368,906.6442453480417
8.8,324.8477088989539,323.1483629137856,322.7802989893547,316.20190148772406,10.078668436884527,8998500.183340156,,3919.7243527100604,49.38700686212738,204.71497916396913,,,,0.006468355519916866,968.6675092133632
9.200000000000001,324.36397249191896,322.8126046675989,322.4616455056875,316.1891745719911,9.533994779190209,8998442.575119719,,4086.0132698467955,49.388694253481944,195.2014113333465,,,,0.006243309072553851,1028.8174648759716
9.600000000000001,323.915636087897,322.4986385226532,322.16411054863573,316.18554134278827,9.019273911489051,8998385.540577393,,4255.598380202611,49.390662871158575,186.06248175012811,,,,0.006017436191974781,1086.4976280622025
10.0,323.4999777146092,322.2053364214854,321.8866233260609,316.1909512745994,8.53151064141673,8998329.049344966,,4428.683097593585,49.392917609571334,177.26633979343745,,,,0.005790216372422563,1141.078372499211
10.4,323.1145349323371,321.9316310952736,321.628172230239,316.20538550494786,8.067955324083414,8998273.072451426,,4605.537697678533,49.39546448379342,168.7820270402589,,,,0.005561164189465225,1191.8965819588957
10.8,322.75708309797614,321.6765202461294,321.3878089666863,316.22885750490997,7.626078399390849,8998217.582204657,,4786.511045878683,49.39831081049933,160.57950711300205,,,,0.005329833085399109,1238.2557092836169
11.200000000000001,322.42561514269926,321.4390681866558,321.1646500923696,316.26141457476206,7.203550102210443,8998162.552078178,,4972.044563426348,49.40146500164116,152.62972203024836,,,,0.005095822767632923,1279.4274758183867
11.600000000000001,322.11832298813147,321.218406549742,320.95787774174016,316.30313882562024,6.798220050589066,8998107.956602896,,5162.690453631726,49.40493660140069,144.90458313092864,,,,0.004858785272567779,1314.6544732629518
12.0,321.8335805332336,321.01373365129,320.7667389969488,316.3541474671248,6.408099935308314,8998053.77126375,,5359.134691913333,49.40873681179419,137.37696692588324,,,,0.004618433116072588,1343.1545748738604
0.0,316.30964384237194,0.0,0.0,0.0,0.0,8996427.419154184,,0.0,0.0,0.0,,,,0.0,0.0
0.4,316.4157918715525,315.9329603530224,315.75488310052816,312.5642045433623,4.365696389550067,8996470.682033483,,8650.986290201074,49.26382710153152,99.04551563694926,,,,0.0071066779908082415,2070.0315392900384
0.8,316.52572850657,316.02739076503485,315.84647251861844,312.60496476085274,4.442013921573789,8996514.185395764,,8519.16982062768,49.26512111129507,100.62565959352747,,,,0.007095073957878595,1925.981112893521
1.2000000000000002,316.6396478394695,316.1245615578413,315.9407261306457,312.64702981892555,4.521154872501143,8996557.93453264,,8377.690860209435,49.26645829053217,102.24817821355813,,,,0.007090643913847187,1789.1261897139445
1.6,316.75778149219263,316.2254999615518,316.03862745104055,312.69060051909315,4.603270599758446,8996601.93493251,,8244.566662223104,49.26784113141351,103.9373859242352,,,,0.0070790582352376185,1655.7956713086771
2.0,316.88035986342516,316.3299655908248,316.1399572361221,312.7358375676651,4.688364268362534,8996646.192299128,,8110.565998181006,49.269278906415416,105.68152396961392,,,,0.007067483752747619,1527.8546829563961
2.4000000000000004,317.0076315825501,316.4381258457604,316.24487370913675,312.78273486478713,4.776710548351048,8996690.712547524,,7975.650781134202,49.270770161098994,107.48569632243643,,,,0.0070562243754742175,1405.3350379636138
2.8000000000000003,317.1398623121661,316.55017528729815,316.35356601197,312.8313850853799,4.868491187378481,8996735.50181786,,7839.863779668017,49.272317947194296,109.35291707222889,,,,0.007045341483464054,1288.2060830438988
3.2,317.27733616087426,316.6663207458257,316.46623521105505,312.88188628183264,4.963900960821832,8996780.566487264,,7703.249395703203,49.27392550592188,111.28639191640922,,,,0.007034895068589651,1176.4343916719968
3.6,317.4203571901679,316.78678238788876,316.58309538268537,312.93434444721385,5.063147670707224,8996825.913182383,,7565.854336130245,49.27559632721822,113.28950849689424,,,,0.007024942092491411,1069.9840346942858
4.0,317.56925107334564,316.9117945713892,316.7043744107278,312.98887237893297,5.166454102093951,8996871.548792712,,7427.727018404873,49.27733413414364,115.36586740362112,,,,0.00701553885558128,968.8175083924478
4.4,317.72436689495765,317.0416069093381,316.83031503062887,313.04559045609955,5.274059153086114,8996917.48048476,,7288.9176034093925,49.27914290689257,117.51929407388643,,,,0.007006741402653338,872.8962051382091
4.800000000000001,317.88607910386435,317.17648539670324,316.9611759307599,313.1046274475761,5.386219079848445,8996963.71571712,,7149.47798525347,49.281027313633295,119.75385232622193,,,,0.006998606065847772,782.1808596184312
5.2,318.054789633169,317.31671360965856,317.097232926558,313.16612116548765,5.503208962043232,8997010.262256509,,7009.461769427606,49.28299184727212,122.07385866282924,,,,0.006991190042662722,696.6319550370686
5.6000000000000005,318.2309302044634,317.4625939673704,317.23878019164886,313.2302191819235,5.6253242954522875,8997057.128194813,,6868.924199037337,49.2850411071544,124.48389914341242,,,,0.006984552148341666,616.2101060066221
6.0,318.41496483558683,317.61444905663086,317.3861315471689,313.29707945364225,5.75288280681707,8997104.321967257,,6727.92203399445,49.287180346020435,126.98884923427211,,,,0.00697875373888441,540.8764131095921
6.4,318.60739257813736,317.7726230000065,317.5396217830621,313.36687039253314,5.886226745466729,8997151.85237176,,6586.5133313903225,49.289415182657805,129.5938996189976,,,,0.006973860010023827,470.592801309686
6.800000000000001,318.8087504471507,317.93748320436,317.6996084281843,313.4397747108304,6.025723481504599,8997199.728589527,,6444.758105458849,49.29175169206253,132.30454444617826,,,,0.006969938078703536,405.32212920237583
7.2,319.0196166644219,318.1094216412986,317.8664729261021,313.5159871873859,6.171769606203952,8997247.960206997,,6302.717414558395,49.29419636317032,135.126639350221,,,,0.006967060835367804,345.02870555307675
7.6000000000000005,319.2406141574898,318.28885667598996,318.04062245915,313.59571649972423,6.324792558943329,8997296.557239234,,6160.4537644113225,49.29675616876185,138.066404131287,,,,0.006965305959496476,289.67844851355255
8.0,319.47241437126974,318.47623478873027,318.2224916233728,313.67918626380896,6.485253529353088,8997345.530154865,,6018.031011998583,49.29943905798343,141.13044874674915,,,,0.006964756800920711,239.2392011925751
8.4,319.71574143176883,318.6720323190704,318.4125441117615,313.7666356240804,6.653651095004761,8997394.889902664,,5875.514177220019,49.30225317305972,144.32580713271832,,,,0.006965503685725843,193.6810671795482
8.8,319.971376664507,318.87675743205904,318.61127464802155,313.85832064920135,6.830524321696657,8997444.647939915,,5732.969611551028,49.30520656179904,147.65995522008518,,,,0.006967643839691543,152.9767223617212
9.200000000000001,320.2401634811684,319.0909522232424,318.81921107305374,313.95451726050135,7.016455632011912,8997494.816262621,,5590.465297833884,49.308308462616516,151.14082147280865,,,,0.006971280739822338,117.10178147876918
9.600000000000001,320.52301274580066,319.3151944586768,319.0369159819234,314.0555194140495,7.212076479566804,8997545.407437716,,5448.070379320524,49.31156873752254,154.77684386855535,,,,0.006976526779355281,86.03527999847249
10.0,320.82090859155227,319.5500997182512,319.264988832823,314.16164124507327,7.418071525679409,8997596.434637405,,5305.855418008969,49.314997927345324,158.57698918084523,,,,0.006983502940407399,59.76012397973776
10.4,321.1349147857208,319.79632323130346,319.5040676867681,314.2732164938316,7.6351848906285795,8997647.911675822,,5163.8921515260245,49.31860805656671,162.55080633193955,,,,0.006992340778365793,38.26363323242895
10.8,321.466181550381,320.0545623817547,319.7548317396107,314.3906037266216,7.864223788110678,8997699.853048064,,5022.254309538475,49.322410925322835,166.7084114405651,,,,0.007003179622081682,21.538112169473145
11.200000000000001,321.81595300639395,320.3255584231131,320.0180029343104,314.51418346149245,8.106066103903856,8997752.273971746,,4881.01733772865,49.326418760576516,171.06054490388792,,,,0.0070161688431472965,9.581540652619442
11.600000000000001,322.18557528784214,320.6100980853201,320.2943474645381,314.64435920403236,8.361668706238675,8997805.190431267,,4740.258231266749,49.330645071333336,175.6186288761215,,,,0.0070314698869687825,2.3983054746976435
