x,TH_final,TW_H_final,TW_C_final,TC_final,dT,PH,dp_amb,alpha_i_final,alpha_o_final,Q3,mdot_vec,Tower inlet diameter,Air face velocity,Bu_c,Bu_j
0.0,354.54999999999995,0.0,0.0,0.0,0.0,9000000.0,20.401794590748775,0.0,0.0,0.0,0.07614108419561928,0,3,0.0,0.0
0.4,351.411565588478,336.6196664277092,335.90303081331973,323.1155537913319,32.160518341884256,8999963.587332368,20.2650345497246,914.4629150130074,49.41399900000632,398.5884926281165,0.07720891580434865,,,0.02950427656284375,5.5467059999937096e-05
0.8,348.52318190125936,335.56611724231783,334.8831528743898,322.69337784461834,29.461477306744428,8999928.111214723,20.171458354461105,990.0982759247555,49.401524433384395,379.86074437307315,0.07626283820359958,,,0.02861489670375613,8.714960212423268
1.2000000000000002,345.8722458867111,334.5271966740086,333.87733738877165,322.275482814894,27.003713369080458,8999893.522204297,20.12278101736843,1070.7932604919922,49.38913701043319,361.4478930650808,0.07708716179618208,,,0.027733461488056402,34.17753999859648
1.6,343.4450169605001,333.5106693403173,332.8931367501965,321.8656502992582,24.770954208604223,8999859.771849124,,1156.4984190525684,49.37696060727978,343.4679763251579,,,,0.02686497443561645,75.28748450034027
2.0,341.2270205687827,332.5231525401742,331.93698685311625,321.4670793893692,22.746472455130515,8999826.813025184,,1247.111137781031,49.3651009695972,326.02189026133277,,,,0.026013807495747887,130.87758376729803
2.4000000000000004,339.2034359869943,331.57010698667705,331.0142028281034,321.08248125501234,20.91337775971334,8999794.600217221,,1342.4851057673707,49.35364673363867,309.19060699637106,,,,0.025183344358529924,199.7527564257836
2.8000000000000003,337.3594392510785,330.6558137450719,330.128957099042,320.7140725151611,19.254977419014836,8999763.089738144,,1442.439898024685,49.34267358802625,293.0345522172569,,,,0.024375891047653822,280.7200201690834
3.2,335.68048952130954,329.7833746260354,329.2842775543894,320.3635417910022,17.755138111955375,8999732.239887899,,1546.7693756755739,49.332241999441216,277.59484103175504,,,,0.023592794448972814,372.6093612374063
3.6,334.1525578032782,328.95478852455346,328.4821209333943,320.0320681518155,16.39853116173515,8999702.011055635,,1655.2507444527446,49.32239269259667,262.8949202145423,,,,0.022834548499607712,474.2855411779683
4.0,332.7622979150563,328.1710641822678,327.7234814499346,319.7203595711006,15.170807713548243,8999672.365770798,,1767.6526552532002,49.31315500969992,248.94287001296908,,,,0.022100946647028417,584.6527022943076
4.4,331.4971643913381,327.43236206441856,327.0085282437584,319.42871352612497,14.058698624567,8999643.268710265,,1883.7426362521255,49.30454173305921,235.73386573797214,,,,0.021391225403596212,702.6532131578991
4.800000000000001,330.3454837731277,326.73814653054313,326.33675310725846,319.15708131212693,13.050052702672929,8999614.686669106,,2003.2935751534621,49.296556702092296,223.25264935513587,,,,0.02070419709805097,827.2624206813334
5.2,329.29648695152605,326.08733569815485,325.70711617365805,318.9051485416826,12.133830602172566,8999586.588502556,,2126.0892598695673,49.289192403143765,211.47585201472455,,,,0.02003836459208831,957.4806602808391
5.6000000000000005,328.3403100305574,325.4784371923421,325.11817773621345,318.672391689936,11.300070957757157,8999558.945046404,,2251.928506559914,49.28243740470666,200.37417997897137,,,,0.019392033614263126,1092.3245118286864
6.0,327.4679721440193,324.9096719266631,324.5682189073352,318.45814390493433,10.539825400457858,8999531.729022129,,2380.6292025058174,49.27627161740615,189.91415099716522,,,,0.01876338010802343,1230.816502977371
6.4,326.67133638593975,324.37907587681434,324.055340595544,318.26164553453344,9.845086733329481,8999504.914932137,,2512.03118649264,49.27067485496289,180.05964981895278,,,,0.018150519517343262,1371.975518946665
6.800000000000001,325.9430598581015,323.884584400157,323.57754564493297,318.08208710028254,9.20870875552589,8999478.47894955,,2645.998952850649,49.26562412367257,170.77314072644853,,,,0.017551552639523814,1514.8072383985086
7.2,325.2765373791893,323.42409862700816,323.1328034955788,317.9186418569553,8.62432499410204,8999452.398805993,,2782.424056570638,49.26109473146565,162.0166302390306,,,,0.016964601412932632,1658.2952664952154
7.6000000000000005,324.6658425777487,322.9955371544187,322.7191006360433,317.77049663160926,8.086266693326081,8999426.65368001,,2921.227827138929,49.257063375340486,153.75235749308752,,,,0.01638782764062925,1801.3922608640953
8.0,324.1056686180414,322.59687265859935,322.33447616439105,317.6368648320441,7.589490566682969,8999401.224088034,,3062.3635730565697,49.25350853426123,145.94337904778462,,,,0.015819459355134242,1943.0131248989485
8.4,323.59127093161584,322.22616016982744,321.97704953765174,317.51700666367975,7.129504295540869,8999376.091779225,,3205.8202545899508,49.25040850539793,138.55386111887833,,,,0.01525778888618215,2082.026675677619
8.8,323.1184127239148,321.88155452704706,321.64503753947156,317.4102375435898,6.702303930461653,8999351.239634987,,3351.6258984107167,49.24774379797501,131.54935042734908,,,,0.014701185141331398,2217.249638387411
9.200000000000001,322.68331412655016,321.5613215425987,321.33676519446897,317.31593314101593,6.30431580237348,8999326.651573706,,3499.8520363249563,49.24549728287638,124.89691346752085,,,,0.014148098322782732,2347.4409980059927
9.600000000000001,322.2826054135723,321.2638440925976,321.05067176731615,317.23353349516265,5.932343852582903,8999302.312460901,,3650.619341187102,49.24365401290626,118.56518725521362,,,,0.013597061342387258,2471.296867323395
10.0,321.9132845037543,320.98762477077383,320.78531348691445,317.16254846111156,5.583520950682157,8999278.20802476,,3804.1051600341057,49.24220139286762,112.52434022907592,,,,0.013046685041558675,2587.4450469142475
10.4,321.57267851282387,320.73128487943256,320.5393625910817,317.10255636505923,5.255268405286074,8999254.324776907,,3960.5523172394965,49.24112918677039,106.74604233873615,,,,0.012495663007157895,2694.4418821849213
10.8,321.2584092721635,320.49356174726785,320.3116047922494,317.0532038444175,4.945259059255022,8999230.649938142,,4120.28060428027,49.24042954066509,101.20338284861896,,,,0.011942773810914346,2790.7698036099096
11.200000000000001,320.96836262896676,320.2733049285961,320.10093569122597,317.0142062590978,4.651383883915059,8999207.171368843,,4283.7017969968265,49.24009701922526,95.87075096335445,,,,0.0113868821756633,2874.835674787221
11.600000000000001,320.7006611639598,320.06947115395775,319.9063559134886,316.9853460300879,4.371724055075504,8999183.87750364,,4451.338493307283,49.2401285655048,90.72373259164577,,,,0.010826948097486369,2944.9722440981072
12.0,320.4536401464732,319.8811192403469,319.7269662786303,316.9664723458067,4.104524752180566,8999160.757289972,,4623.84934875354,49.240523523879276,85.73896612557516,,,,0.01026203336743847,2999.4408448375175
0.0,354.54999999999995,0.0,0.0,0.0,0.0,9000000.0,,0.0,0.0,0.0,,,,0.0,0.0
0.4,351.1111929037383,333.6108704336469,332.81328403348425,318.52497511337754,36.861264483140985,8999962.71019273,,866.3855329284324,49.22030753867179,443.6128411792183,,,,0.03626455879065898,6.55277527251317e-05
0.8,347.95484482947705,332.7118777427424,331.9509533525716,318.31841503163025,33.65278256933999,8999926.474376615,,944.4233031619265,49.21672627692964,423.221647931349,,,,0.03522954293811409,10.346728395440786
1.2000000000000002,345.0695171281873,331.81254251705326,331.08832768568334,318.1125182349155,30.720224592162594,8999891.236929227,,1028.5878860669152,49.213176669548666,402.8040082971484,,,,0.03418130174931938,40.74891248485042
1.6,342.44140265079653,330.922162234607,330.23434041576587,317.9097041307445,28.049713032967816,8999856.942454375,,1118.969695422125,49.2097092180224,382.56242985674663,,,,0.033126609133909,90.07432645889067
2.0,340.0550155287898,330.0485551837004,329.3965040476047,317.7120132296526,25.62554236333483,8999823.536357587,,1215.5076535190644,49.206366614439915,362.66698756986256,,,,0.03207380916264589,157.00595855117703
2.4000000000000004,337.89374513971205,329.1986163933305,328.5814430085147,317.521219781338,23.43075511896052,8999790.965342905,,1318.065908459113,49.20318603962491,343.2681884737985,,,,0.031030227899112438,240.10364783703926
2.8000000000000003,335.9403954290255,328.37815166173897,327.7947368379978,317.33884788488206,21.447650834855096,8999759.177837588,,1426.445650413705,49.200199853931565,324.4918763406868,,,,0.030001804631307007,337.85931552965627
3.2,334.17767314887834,327.5917497385663,327.04079628469964,317.16611075747517,19.65834061335096,8999728.124333374,,1540.3976698036897,49.19743347968999,306.4370542963423,,,,0.02899305214321963,448.74189242560277
3.6,332.5886050011641,326.842765177573,326.3228470252801,317.003916849302,18.04519653088761,8999697.757640187,,1659.6367689166702,49.19490699899202,289.17540302055147,,,,0.028007074741447917,571.2292117780072
4.0,331.1568700767909,326.13337761542454,325.6429864897128,316.85288072013753,16.591220739639652,8999668.03305416,,1783.8559677042952,49.19263470148223,272.75264535623313,,,,0.027045691872492197,703.8272296635612
4.4,329.86704425841896,325.4647109112102,325.002298237216,316.71335153113546,15.280319363514309,8999638.908447132,,1912.7397279310355,49.19062565978323,257.19119590835805,,,,0.026109615171627083,845.0782049499375
4.800000000000001,328.70476175370453,324.8369902366968,324.4010030241424,316.58546144699307,14.097480930393317,8999610.344288174,,2045.9758593786305,49.18888471063249,242.493510456087,,,,0.025198635993119924,993.5598405164492
5.2,327.6568036607827,324.24970955481393,323.8386195044306,316.4691609786259,13.028883455080006,8999582.303609543,,2183.2651582748263,49.187413173893965,228.6458560316588,,,,0.024311835927051044,1147.878892371976
5.6000000000000005,326.7111274131922,323.70179866056577,323.31412471656813,316.36426337663323,12.061931010937428,8999554.751929691,,2324.329405421807,49.18621012781698,215.62195608153237,,,,0.023447771059376038,1306.6609609042912
6.0,325.8568513181228,323.1917769320542,322.8261018806155,316.2704874687268,11.185238667239787,8999527.657145042,,2468.917926804211,49.185272135153966,203.38630208390109,,,,0.02260462759149286,1468.5382008582967
6.4,325.0842070765609,322.71788568809995,322.37286751838417,316.18748952876666,10.388584274895152,8999500.989400724,,2616.8127118646003,49.18459506272267,191.89706658071387,,,,0.021780359156100288,1632.1369470397156
6.800000000000001,324.38447151504386,322.2781982058538,321.9525771358613,316.114891632707,9.662836534884661,8999474.720948732,,2767.832677881484,49.184174347357384,181.10851436894868,,,,0.02097279661833639,1796.0659594618212
7.2,323.7498865586853,321.8707080068636,321.56331009510546,316.05230539213153,8.999868151809324,8999448.826000158,,2921.837625546596,49.184005451936315,170.9729014670891,,,,0.02017972922343808,1958.9055069085057
7.6000000000000005,323.17357414352387,321.4933966457992,321.20313477764245,315.9993499386765,8.392463649737294,8999423.280576512,,3078.732107104893,49.18408425430701,161.4419353063485,,,,0.019398966391408395,2119.197862680699
8.0,322.6494508725466,321.1442839293053,320.87015687010296,315.95566523038013,7.834226804032198,8999398.06236373,,3238.4696027152736,49.18440734447302,152.46784994318043,,,,0.01862838274898115,2275.4392989348107
8.4,322.1721457266253,320.8214640004909,320.56255413359895,315.92092429489577,7.31948993476243,8999373.150571335,,3401.0576189441827,49.184972302908136,144.004137535269,,,,0.017865945124399027,2426.0729920637255
8.8,321.7369226977307,320.5231290112332,320.27859914754737,315.89483825101746,6.843231057306809,8999348.525798315,,3566.5634856695474,49.18577782265576,136.00606476006794,,,,0.017109737946233453,2569.484261353919
9.200000000000001,321.3396096177852,320.24758448733627,320.01667418827805,315.87716210470217,6.400995104963499,8999324.16990661,,3735.1221171611123,49.18682389092489,128.43094341493676,,,,0.016357972616200585,2703.9962170861995
9.600000000000001,320.9765335935432,319.99325750157664,319.77527915642827,315.8676983397941,5.9888233905353445,8999300.06590254,,3906.9456937435175,49.188112203091606,121.23826709095353,,,,0.015608995962771443,2827.8671739060533
10.0,320.6444630929435,319.75869975789686,319.55303461483953,315.8662995548508,5.60319044884784,8999276.19782618,,4082.3360647479876,49.18964556080095,114.3897368755068,,,,0.014861296774495495,2939.2897419784053
10.4,320.34055648066294,319.54258716966046,319.3486814803701,315.8728698409467,5.240947303617418,8999252.550648442,,4261.7009137453815,49.19142823561463,107.84919820215401,,,,0.014113510364516078,3036.3915358980394
10.8,320.0623166078574,319.3437169263246,319.16107830334875,315.8873658220599,4.89927130791267,8999229.110175395,,4445.5748281983415,49.193466279752236,101.5825225208699,,,,0.013364424645212437,3117.238181334056
11.200000000000001,319.80755096139706,319.1610028299836,318.98919687094445,315.9097978742022,4.575622352585867,8999205.862959335,,4634.6468765002255,49.19576741563288,95.55745887866044,,,,0.01261299052909609,3179.8396122797362
11.600000000000001,319.5743369830451,318.993470186212,318.83211748632095,315.9402296526876,4.267702174095405,8999182.796215935,,4829.798266244967,49.19834117042473,89.74341792956606,,,,0.011858327621311443,3222.1579884309435
12.0,319.3609918629049,318.8402493030774,318.68902275247785,315.97877946026523,3.9734221764327913,8999159.897746885,,5032.151526462048,49.20119886113435,84.11131355397372,,,,0.011099749953888925,3242.1238087974702
0.0,315.4143068571437,0.0,0.0,0.0,0.0,8998474.012516772,,0.0,0.0,0.0,,,,0.0,0.0
0.4,315.4873140721099,315.2070805812983,315.1124705993395,313.41368882407886,2.3404597530842466,8998492.726754775,,8104.175339296876,49.10493253698883,52.621513396702206,,,,0.01290557257164341,3793.0931798571946
0.8,315.5629574953054,315.27268461135685,315.1761092527121,313.4420575629051,2.3927049694186167,8998511.526210837,,7986.740737388382,49.10582719561208,53.71464422380892,,,,0.013031427676404994,3569.134289957444
1.2000000000000002,315.6413845975412,315.3404210061877,315.24181874440717,313.4713945384235,2.4468887919800864,8998530.413125657,,7864.6747816129355,49.10675303229139,54.841995719837364,,,,0.013162635605914503,3350.8270781010865
1.6,315.72276123719456,315.41062649934474,315.3099227565442,313.5017895823038,2.5031201717906697,8998549.389828818,,7745.369564865923,49.10771197213452,56.010826954729225,,,,0.013287951108984298,3135.5389698790823
2.0,315.8072601249266,315.4833295924956,315.38045235835693,313.533320223264,2.561482703585739,8998568.458745288,,7625.0419341442475,49.10870747758981,57.21970992231725,,,,0.013413008488030186,2925.0607488145156
2.4000000000000004,315.8950674582387,315.5586654149399,315.4535378669354,313.5660306492427,2.6221271359497678,8998587.622398421,,7503.669923226582,49.109740701496264,58.47132115393953,,,,0.013538096201765618,2719.7241771199824
2.8000000000000003,315.9863833456274,315.6367824590008,315.52932362440714,313.59999101414525,2.6851898168791877,8998606.883416094,,7381.263482041162,49.110813933887854,59.76796889391068,,,,0.013663327514688833,2519.809127973326
3.2,316.08142307919275,315.71783956799453,315.6079640473726,313.63527659372676,2.750817395064132,8998626.244536841,,7257.834289593024,49.11192963546205,61.11211533272026,,,,0.013788821397222902,2325.5890478492556
3.6,316.1804185469796,315.80200681491084,315.68962448251517,313.6719682389653,2.819167781636793,8998645.70861644,,7133.3959321319935,49.113090452821034,62.50638917989296,,,,0.013914701763857527,2137.3311831315646
4.0,316.28361980177186,315.8894664701424,315.7744821498316,313.7101528785381,2.890411218018585,8998665.278634952,,7007.96408148298,49.114299235387556,63.95359944679551,,,,0.014041096740439626,1955.2969298014345
4.4,316.3912968049559,315.9804140678538,315.8627271818164,313.74992407704576,2.9647314617906204,8998684.957704311,,6881.556675057125,49.115559054223255,65.45675051238385,,,,0.014168137976829576,1779.7422934285141
4.800000000000001,316.5037413694271,316.07505956819983,315.9545637527465,313.7913827043438,3.0423271915751684,8998704.749076443,,6754.1940178544255,49.11687321951902,67.0190604090937,,,,0.014295960612703452,1610.9185106708317
5.2,316.6212693160466,316.1736286796617,316.05021137533413,313.8346375257013,3.123413300204845,8998724.656152016,,6625.899124258531,49.11824537215732,68.64397525412122,,,,0.01442470162281645,1449.0725433609718
5.6000000000000005,316.74422288180796,316.27636425638906,316.14990625563786,313.87980567546674,3.208222692412619,8998744.682489837,,6496.697733396613,49.11967976953504,70.33519262834194,,,,0.014554500663874731,1294.4479295157569
6.0,316.87297340053425,316.38352788172625,316.25390284095505,313.9270139281085,3.2970080872686935,8998764.83181698,,6366.618553360363,49.12118017208323,72.09668154944465,,,,0.014685499417439057,1147.2854749901421
6.4,317.0079242766423,316.4954016580236,316.3624755817666,313.97640031612684,3.390043605762912,8998785.108039686,,6235.693720309431,49.12275113626309,73.9326979479493,,,,0.014817839280216762,1007.8238912554425
6.800000000000001,317.1495143256497,316.6122899982822,316.4759206543285,314.0281138891285,3.487627677020612,8998805.515255107,,6103.958452926976,49.12439759635133,75.84782306937788,,,,0.014951665712642328,876.3009490454535
7.2,317.2982214912899,316.73452175940196,316.59455805328787,314.0823163779789,3.590085321458389,8998826.057763975,,5971.451412987453,49.126124914241515,77.84698604554576,,,,0.015087127231363457,752.9541321276749
7.6000000000000005,317.454566994395,316.86245253077374,316.7187338258466,314.13918346405814,3.6977709896850683,8998846.7400843,,5838.214839080673,49.12793892300277,79.9354942001436,,,,0.01522437642292858,638.0214464163507
8.0,317.619119965402,316.9964671409828,316.84882251911205,314.19890617762593,3.811071745113395,8998867.566966143,,5704.294665572888,49.129845974927996,82.11906601331583,,,,0.015363571340284534,531.7422114069855
8.4,317.79250261878065,317.1369823986035,316.98522985652005,314.2616924347513,3.930410837289969,8998888.543407597,,5569.7406251383345,49.13185299437537,84.40386695828117,,,,0.015504877314921324,434.3578294979859
8.8,317.9753960493919,317.2844500225977,317.12839558608306,314.32776805872487,4.056252059576991,8998909.674672084,,5434.606146773253,49.13396752225908,86.79655522355843,,,,0.01564847106091695,346.11257366339265
9.200000000000001,318.16854668251364,317.4393600280657,317.2787968144765,314.39738000088664,4.189103587748718,8998930.966307072,,5298.948820743343,49.136198091973746,89.30431037902356,,,,0.01579453955328652,267.25421116496796
9.600000000000001,318.3727734905354,317.6022442354404,317.43695142999445,314.4707980904635,4.329523206880481,8998952.424164334,,5162.830353829376,49.1385539950129,91.93488138267892,,,,0.01594328398554059,198.03480164195892
10.0,318.58897609466635,317.773679967746,317.6034216874846,314.54831623394017,4.478124784588999,8998974.054421926,,5026.316275774628,49.14104456070179,94.69664910463395,,,,0.016094926906743672,138.71150056576653
10.4,318.81814380919315,317.95429427195336,317.77881834952393,314.630255125425,4.635584282926175,8998995.863607997,,4889.476216657866,49.143680548458114,97.59867083216709,,,,0.01624971379129138,89.54730415177107
10.8,319.061365762138,318.1447683513455,317.96380501578847,314.7169646506351,4.802647181757607,8999017.85862665,,4752.383932687,49.146473721468396,100.65073757174174,,,,0.016407917509976718,50.81194536708546
11.200000000000001,319.3198422879131,318.3458420225785,318.15910242254125,314.8088249898805,4.980138229216664,8999040.046786008,,4615.116808192506,49.149436884501895,103.86346173400516,,,,0.016569849624821442,22.782924251889433
11.600000000000001,319.59489756317106,318.5583192504931,318.36549394112046,314.9062539435638,5.168968666408091,8999062.435828697,,4477.756876065326,49.15258407405993,107.24829728211763,,,,0.01673585391748593,5.746667336000992
