x,TH_final,TW_H_final,TW_C_final,TC_final,dT,PH,dp_amb,alpha_i_final,alpha_o_final,Q3,mdot_vec,Tower inlet diameter,Air face velocity,Bu_c,Bu_j
0.0,339.10999999999996,0.0,0.0,0.0,0.0,8000000.0,5.369335811914803,0.0,0.0,0.0,0.03178519902961082,[],1.3283519945219133,0.0,0.0
0.4,336.13451855064346,326.645866969436,326.3418460965411,318.2556532988243,21.53768137301637,7999992.231041727,5.336491446165549,578.2616950046457,29.1502775129574,169.09461239021465,0.03229941502380204,,,0.11754639901796396,0.00022999515181272297
0.8,333.4791942995478,325.49387618678907,325.2098618007462,317.65230950335757,19.182798385954868,7999984.681795124,5.315436804794972,636.6962636571818,29.138564266393658,157.96712266457067,0.03187897692648486,,,0.11179520537252376,35.43704403994919
1.2000000000000002,331.11591630585275,324.38631950014747,324.1214227444445,317.0694321279612,17.119891003115185,7999977.336246696,5.307174092312283,699.0575877802593,29.12719721819331,147.3340096788116,0.03220563712691058,,,0.10627632129616414,136.25672457890178
1.6,329.0164977883185,323.3326187453268,323.08583331566484,316.51318112014195,15.315489407194264,7999970.1792068025,,765.1623626060592,29.11631299924597,137.26059719463058,,,,0.10101019640804233,294.28469782612626
2.0,327.1535759150286,322.3392133572509,322.1094631973243,315.988031335511,13.73784249081507,7999963.196396686,,834.8033545676294,29.10601498296,127.78568086661603,,,,0.09600479380851727,501.642946727035
2.4000000000000004,325.50126811069464,321.40979538838644,321.19597595698406,315.4968365335559,12.357677324454414,7999956.374493499,,907.7625521860397,29.096372660878014,118.92510382965234,,,,0.0912583807602016,750.9162140673374
2.8000000000000003,324.03559343206507,320.54570551210116,320.34671679492004,315.04100564519695,11.148622404933917,7999949.701140235,,983.8214115455393,29.087424738307792,110.67634824559683,,,,0.08676249506482434,1035.2244098502877
3.2,322.73469251439525,319.74640355881814,319.5611746321443,314.6207424234084,10.087346298039733,7999943.164928619,,1062.768072996858,29.0791836681096,103.02323410114998,,,,0.0825045778919393,1348.233788743124
3.6,321.5788956501421,319.00994993262424,318.8374561559879,314.2353290948788,9.153472701212081,7999936.755362567,,1144.4026116912817,29.071641285944324,95.94001892962196,,,,0.07846984989069503,1684.1312012427004
4.0,320.55067623505914,318.3334371227554,318.17271117295616,313.8833887059011,8.329371398683577,7999930.4628089,,1228.5404988011317,29.064774366607963,89.3948232062318,,,,0.0746426555482311,2037.5801874562817
4.4,319.6345373144671,317.7133514364921,317.56348957188584,313.5631181251374,7.59988105879296,7999924.278440623,,1315.0150506508016,29.05854964483377,83.35228324018355,,,,0.07100729665370187,2403.6686055103637
4.800000000000001,318.8168549915116,317.1458590964683,317.00602387990494,313.2724738077799,6.95201074766436,7999918.194176614,,1403.679287445505,29.052928175382103,77.77552086619005,,,,0.06754849698856014,2777.852702667534
5.2,318.08570269906096,316.627017798744,316.49643821225783,313.0093151376968,6.374653078857364,7999912.202620676,,1494.4071893466607,29.04786809543573,72.62759412809942,,,,0.06425169882355594,3155.9032793969836
5.6000000000000005,317.4306715689189,316.1529292718898,316.0308991198792,312.77150521730334,5.858313898293204,7999906.297001883,,1587.095245380458,29.04332709281838,67.87244920749829,,,,0.06110313981898984,3533.851063596707
6.0,316.84269600126106,315.71984037192044,315.6057154894557,312.5569813819079,5.394876254549104,7999900.471117521,,1681.663630405437,29.039264610864336,63.4755850146069,,,,0.05808992142681975,3907.937536810238
6.4,316.3138905541559,315.3242076495002,315.21740243824354,312.36379884678144,4.977391295770474,7999894.719279354,,1778.0578893705647,29.03564154962328,59.40442715695243,,,,0.05519998134142913,4274.566933434214
6.800000000000001,315.83740110689666,314.96273388658835,314.8627175121462,312.19015827237837,4.599897991138619,7999889.0362636475,,1876.2510491945566,29.032422558725766,55.62851625274606,,,,0.05242204179581239,4630.260638079801
7.2,315.4072711034787,314.63238343511415,314.5386758538739,312.0344141528614,4.257273242371582,7999883.417265052,,1976.2457126083843,29.029574743047963,52.11960276761852,,,,0.04974560495106209,4971.619434652791
7.6000000000000005,315.0183233447493,314.33038553534345,314.24255361711397,311.8950830351806,3.9450996712883466,7999877.857854346,,2078.0775923083643,29.027068878801142,48.85159373178324,,,,0.0471608639359258,5295.283118955626
8.0,314.66605607736204,314.0542268512332,313.97188060036876,311.77083493365643,3.6595591134546908,7999872.35393987,,2181.819039306911,29.024879163310032,45.80049797045439,,,,0.04465870299807216,5597.901430724593
8.4,314.3465528120757,313.8016402403313,313.7244293084664,311.66049266089595,3.3973371095964353,7999866.901732437,,2287.5849322094828,29.022982540997745,42.94426389788439,,,,0.04223060097443945,5876.09854603277
8.8,314.0564039940359,313.5705884667867,313.498198868696,311.56301880224163,3.155548156232612,7999861.497713438,,2395.538801145081,29.02135918099564,40.26266655016044,,,,0.03986864687188616,6126.45300475893
9.200000000000001,313.7926395938062,313.35924767889975,313.29139882323807,311.47750838721987,2.9316687075413483,7999856.138605894,,2505.9019405960344,29.019992076240925,37.737132450648474,,,,0.037565488034365054,6345.473934682589
9.600000000000001,313.5526712463077,313.1659903728343,313.10243240006577,311.4031808692147,2.7234811166388226,7999850.821348139,,2618.9652468739796,29.018866927371405,35.350568752327156,,,,0.035314297717918205,6529.58218297659
10.0,313.3342426068563,312.9893683651551,312.92987975675044,311.3393691821095,2.5290276729737116,7999845.543069864,,2735.104295950991,29.017971869427097,33.08721234870999,,,,0.033108780186864924,6675.101494535627
10.4,313.13538697836066,312.8280970770638,312.7724825629736,311.2855126137231,2.346570089902798,7999840.301070249,,2854.8000883605514,29.0172972746698,30.932463989655552,,,,0.03094315821355438,6778.251989878074
10.8,312.954391164049,312.68104074284236,312.62912947441197,311.2411489815104,2.1745559188416337,7999835.092797927,,2978.6666352986445,29.01683578744522,28.872740644926015,,,,0.028812191942651978,6835.155285296446
11.200000000000001,312.7897648084654,312.5471992319863,312.4988432364881,311.205909903674,2.0115886331971637,7999829.915832539,,3107.4894377728656,29.01658215354339,26.89531885121057,,,,0.02671119065152569,6841.84553545415
11.600000000000001,312.64021438325136,312.42569586033426,312.3807687312897,311.1795143185484,1.856403368776114,7999824.767867645,,3242.278239038418,29.016533117013687,24.988203597512815,,,,0.024636072506081453,6794.300770093968
12.0,312.50462128456513,312.31576672739095,312.274162561784,311.16176472461007,1.7078451088239035,7999819.646694788,,3384.3425892533683,29.016687366020754,23.139990972342083,,,,0.022583431527593126,6688.489673739898
0.0,339.10999999999996,0.0,0.0,0.0,0.0,8000000.0,,0.0,0.0,0.0,,,,0.0,0.0
0.4,335.71650906997456,323.71299720952993,323.3594923055836,313.91350250578637,26.02576389961257,7999992.019839039,,538.7004799444682,29.030151863687244,196.61733795763303,,,,0.1547739596512029,0.00029043520509510173
0.8,332.7129516444312,322.74348735566656,322.4135442553563,313.59580657492404,22.976585912802364,7999984.298075268,,600.4947504925002,29.026308212970136,183.51240205145731,,,,0.14716650002520323,44.963400763920006
1.2000000000000002,330.0687524599086,321.7951282087043,321.48825675151767,313.28589647120896,20.29776826725447,7999976.815157098,,667.6662118291889,29.022573529375432,170.68009052547123,,,,0.13963260308150954,173.3519732770439
1.6,327.75063575057897,320.8809892001238,320.59638944079074,312.98825415964075,17.955116955633457,7999969.552169877,,740.0646782926425,29.01900610028226,158.29270382988832,,,,0.13225336452778336,374.6702357692864
2.0,325.72446257068844,320.01119943582137,319.74783191213413,312.70635738620587,15.913158409794278,7999962.491085404,,817.4541826968216,29.015651978226444,146.48345986901433,,,,0.12509337786844785,637.97698961473
2.4000000000000004,323.95674651883934,319.19287491944266,318.9495324608865,312.4426528432586,14.136831817227574,7999955.614939544,,899.548612500042,29.012543208661143,135.34563701279893,,,,0.11819822820644175,952.4469134064632
2.8000000000000003,322.41578527783076,318.43024837883706,318.20562506657876,312.19861108769487,12.592778158655506,7999948.907940322,,986.0343062235225,29.009699948324755,124.93415849405011,,,,0.11159625540790645,1307.7632668933472
3.2,321.0723941652191,317.7250436511168,317.5177946753144,311.9748509269724,11.250212861738362,7999942.355514437,,1076.5892833740845,29.007131207828262,115.27065525994267,,,,0.10530146846971289,1694.3493400114203
3.6,319.9002840034795,317.0769784655207,316.8857679987193,311.7713136672343,10.081394147940955,7999935.944304395,,1170.8988119853595,29.00483720546975,106.35013136012428,,,,0.09931663316833124,2103.4674527475263
4.0,318.8761712175006,316.4842874903245,316.3078240639653,311.587440381933,9.061778117192034,7999929.662129159,,1268.6671500114896,29.002811941594082,98.14791463845081,,,,0.0936361958043587,2527.222903303451
4.4,317.97969643060463,315.9441998733064,315.78126035842587,311.4223333068029,8.169952136199754,7999923.497920137,,1369.6259916799513,29.001045180802638,90.625995016681,,,,0.0882488006791621,2958.507478592599
4.800000000000001,317.1932265755548,315.4533378483711,315.3027820308181,311.27489700287015,7.387424331681302,7999917.441642419,,1473.540761045655,28.999523870613388,83.73825576636507,,,,0.08313926635756969,3390.9078398971687
5.2,316.5015950470231,315.00802389198304,314.8688016640439,311.1439363951612,6.698345032480631,7999911.484208893,,1580.2148170407518,28.998233938714016,77.43458021856316,,,,0.07829019891877095,3818.6027527192164
5.6000000000000005,315.89181961735903,314.60450738347976,314.4756606563909,311.0282412540902,6.089193535532047,7999905.617392701,,1689.4931281153936,28.997161193198306,71.66378797554675,,,,0.07368309699290113,4236.255868297
6.0,315.352822804238,314.23911870859763,314.1197796142078,310.9266336791739,5.548472933824144,7999899.833741788,,1801.2650230096094,28.99629195402207,66.37569887216597,,,,0.06929923062560553,4638.918903851722
6.4,314.87516991819973,313.9083694365113,313.7977562122518,310.8380051170945,5.066420322474869,7999894.126497864,,1915.4673666126378,28.995613547377694,61.52242148102508,,,,0.06512019805946612,5021.942986317846
6.800000000000001,314.4508322381545,313.60901071366527,313.5064222413616,310.7613374063968,4.634746337549018,7999888.489521106,,2032.0882561010358,28.995114595081755,57.059101883209955,,,,0.06112830481973905,5380.902446431306
7.2,314.0729780081448,313.3380617163302,313.24287139920244,310.69571157277085,4.246407199832333,7999882.917221179,,2151.171591454809,28.99478517969971,52.944291701670444,,,,0.05730682148860003,5711.53270351028
7.6000000000000005,313.735791214728,313.0928182014335,313.0044676833061,310.64031207047077,3.8954068553458683,7999877.4044946935,,2272.8233423433235,28.99461680938604,49.140035926334654,,,,0.05364012185737186,6009.679203543909
8.0,313.434316352339,312.8708478083306,312.7888408462897,310.5944262615455,3.5766283171334976,7999871.946668881,,2397.219977460798,28.994602547454868,45.61178751795563,,,,0.050113756115305254,6271.258074509462
8.4,313.16432666492904,312.6699775072783,312.59387420746447,310.55744200934896,3.2856902583069427,7999866.539451091,,2524.6200958962463,28.994736976929854,42.32820548627824,,,,0.04671446521980245,6492.225828159378
8.8,312.92221293036283,312.48827623934375,312.41768773879727,310.52884169140475,3.0188274875835077,7999861.178883617,,2655.379867051327,28.995016145282467,39.260906735907966,,,,0.043430194309700715,6668.562370323539
9.200000000000001,312.7048900549448,312.32403573692443,312.2586193990161,310.5081977855395,2.772790034508489,7999855.861303316,,2789.974264691476,28.995437571269786,36.384180451092064,,,,0.04025008041595102,6796.263629131573
9.600000000000001,312.50971889253816,312.1757509572503,312.1152060973817,310.49516773762144,2.5447585409692692,7999850.583305485,,2929.026240511712,28.996000109332527,33.674693161202974,,,,0.03716443801319046,6871.345598395146
10.0,312.33444097126284,312.0421010935456,311.9861652252325,310.4894893251071,2.3322734517250865,7999845.34171146,,3073.347139261652,28.996704003621282,31.11119929648547,,,,0.034164755187209836,6889.862027914329
10.4,312.1771241122699,311.9219317404281,311.87037731769277,310.4909767916883,2.133175784415016,7999840.1335394755,,3223.9934368730424,28.997550862902525,28.67426516046937,,,,0.031243709918053912,6847.9390025935045
10.8,312.03611727251956,311.8142386865877,311.7668703290565,310.49951732321597,1.9455567907086788,7999834.955978292,,3382.3483102522587,28.998543668788532,26.346000442638307,,,,0.02839519982825733,6741.827469155447
11.200000000000001,311.9100131350885,311.71815318116643,311.67480534070205,310.515068802446,1.7677160582765055,7999829.806363197,,3550.240640942084,28.999686790413346,24.109812622956177,,,,0.0256144190953972,6567.984395560793
11.600000000000001,311.79761724592254,311.6329287141829,311.5934637512748,310.537658135616,1.5981263517843445,7999824.682153988,,3730.1235391676355,29.000986009254735,21.95017907799202,,,,0.022897987484493457,6323.191037147791
12.0,311.69792276954587,311.5579293444303,311.5222360062477,310.5673807255587,1.4354032683270361,7999819.58091458,,3925.3516409911954,29.002448576256516,19.852423693160816,,,,0.020244131671305857,6004.717209834377
0.0,309.5980599165093,0.0,0.0,0.0,0.0,7999665.008455823,,0.0,0.0,0.0,,,,0.0,0.0
0.4,309.6361203655016,309.53202635677115,309.507888685283,308.861478764963,0.9284643271757318,7999669.427031673,,5924.221833772286,28.96045977717483,13.425230058615313,,,,0.0229282745965567,6811.088558807421
0.8,309.67573132569817,309.56734885276467,309.5426247157909,308.88048231387705,0.9524591660468786,7999673.858847751,,5827.480779875087,28.96084435948984,13.751418738344935,,,,0.023327260606919885,6458.713714887253
1.2000000000000002,309.7169810185334,309.60404820154525,309.578716261922,308.90027109862183,0.9774163737499748,7999678.304268653,,5729.409757935981,28.96124530751491,14.089475015240046,,,,0.023739954462573876,6110.645718692694
1.6,309.75996587886345,309.6422394779334,309.6162762219281,308.9209001395799,1.0033891631497909,7999682.763674136,,5632.632177663109,28.96166363246067,14.44060945320349,,,,0.024156700614441747,5764.6799786029815
2.0,309.8047881615174,309.68198855493864,309.6553700526525,308.942424115473,1.030425444928369,7999687.237460048,,5535.80066456676,28.96210066441324,14.80505357034243,,,,0.02458256521199437,5422.582542565147
2.4000000000000004,309.8515580326511,309.72338379730473,309.6960847130062,308.96489261181404,1.0585920787490295,7999691.726039056,,5438.908887876087,28.96255742001602,15.183589260226658,,,,0.025018023296590922,5084.862077426961
2.8000000000000003,309.9003940129477,309.7665209286221,309.73851458850913,308.9883643916641,1.0879543162704977,7999696.229841649,,5341.96480351832,28.963035204665477,15.576960771927684,,,,0.02546335670178583,4751.998458253777
3.2,309.9514237295004,309.8115027089191,309.78276101454827,309.0129027926007,1.1185821143347994,7999700.749317169,,5244.977049972229,28.963535373836105,15.985960474690083,,,,0.025918856166939928,4424.495536971694
3.6,310.004784743166,309.85843955032874,309.8289328865451,309.03857620558233,1.1505504993099862,7999705.28493491,,5147.955044176269,28.9640593978206,16.411431946162192,,,,0.026384820407944307,4102.882255453992
4.0,310.0606254596147,309.9074501929011,309.8771473299268,309.065458604663,1.183939962497675,7999709.837185294,,5050.90907974015,28.964608891091668,16.85427322121771,,,,0.026861554949262584,3787.7138912297964
4.4,310.1191061347698,309.95866244263465,309.92753043124304,309.0936300689028,1.2188369222575375,7999714.4065811355,,4953.8503706251895,28.96518560789757,17.315440674710207,,,,0.02734937176546242,3479.5735756225067
4.800000000000001,310.1803999855791,310.0122139817844,309.9802180406493,309.12317733992666,1.2553342382391293,7999718.993658986,,4856.791083399238,28.965791456250212,17.79595330087207,,,,0.02784858908905239,3179.073919385323
5.2,310.244694400304,310.06825330778,310.0353567116782,309.1541951624554,1.293531402382655,7999723.598980583,,4759.744920500462,28.96642852292063,18.296892274438882,,,,0.028359519847061965,2886.8575626935867
5.6000000000000005,310.31219229235427,310.1269406627989,310.09310461459495,309.18678633922787,1.3335354553267962,7999728.223134395,,4662.726618510735,28.967099082771487,18.819409977261362,,,,0.028882481061703442,2603.6004476614676
6.0,310.3831135889906,310.18844913906014,310.1536326372845,309.2210628747749,1.3754614529058244,7999732.866737273,,4565.752255032453,28.967805623324846,19.364732460732068,,,,0.029417787302461577,2330.0131569501045
6.4,310.4576968757132,310.2529658726052,310.2171255711927,309.25714696039347,1.4194331062269043,7999737.530436226,,4468.8393467080505,28.968550868566677,19.934163766617136,,,,0.029965747705203327,2066.8429185569407
6.800000000000001,310.5362012130487,310.32069335800264,310.2837834181534,309.2951720748593,1.465583469570788,7999742.214910323,,4372.006950744523,28.96933780572576,20.529090337827984,,,,0.030526662441332064,1814.875699723481
7.2,310.6189081473899,310.39185088747087,310.3538228199606,309.33528427386375,1.5140557431146817,7999746.920872717,,4275.275696648573,28.97016971378229,21.15098633516305,,,,0.03110082039519875,1574.9384646055305
7.6000000000000005,310.7061239240224,310.4666761720289,310.4274786754301,309.37764344171023,1.5650038970686069,7999751.649072828,,4178.668088666948,28.9710502289953,21.80141588606664,,,,0.031688489519438576,1347.9011142929567
8.0,310.7981819430764,310.54542706538274,310.50500585158153,309.42242467125453,1.618593719918067,7999756.400298663,,4082.2083815308606,28.97198337417508,22.48204017126034,,,,0.03228991705518643,1134.679042631715
8.4,310.8954454602252,310.62838353464105,310.58668115183605,309.46982049130514,1.6750035091683344,7999761.175379309,,3985.9229241184157,28.97297346077396,23.194618795356085,,,,0.03290531691869778,936.2350677952237
8.8,310.99831056101306,310.71584980536255,310.6728054569333,309.52004292872016,1.7344248929436503,7999765.975187584,,3889.8403548660085,28.97402533550931,23.941012137446165,,,,0.033534859175464275,753.5816006297372
9.200000000000001,311.1072094560562,310.80815665885456,310.7637060099991,309.5733251307512,1.7970640832112963,7999770.800642874,,3793.9914533852198,28.97514435621769,24.723188111773563,,,,0.03417866847582471,587.7828999845392
9.600000000000001,311.22261410141937,310.9056640410366,310.8597390248266,309.6299241279229,1.8631427328054997,7999775.6527141575,,3698.409419647097,28.976336458423432,25.54322252014671,,,,0.03483680908701923,439.95669459272244
10.0,311.3450401788849,311.008763900712,310.9612925222055,309.69012363524365,1.9328989471669615,7999780.532423217,,3603.1300159192765,28.977608226608634,26.403300098682024,,,,0.03550927202749549,311.2756353675795
10.4,311.47505147931594,311.1178832633559,311.06878939857916,309.7542367230145,2.006588553099334,7999785.440848063,,3508.1915332635554,28.978966975983813,27.305717378144042,,,,0.03619596655775554,202.9683205044029
10.8,311.6132646714603,311.2334877384929,311.18269094875893,309.8226104801561,2.0844856032857138,7999790.379126558,,3413.6353089581594,28.98042099156199,28.252874174586918,,,,0.036896690576541186,116.31954792789803
11.200000000000001,311.76035452890545,311.3560851888994,311.3035005354725,309.895629488609,2.16688369079975,7999795.348460251,,3319.5056154491344,28.98197918408662,29.24727338628771,,,,0.03761111998316598,52.669976395237356
11.600000000000001,311.9170596136831,311.48622982060294,311.43176769380517,309.9737195418263,2.2540967584193936,7999800.350118422,,3225.8498458925806,28.98365165007498,30.29151297466708,,,,0.03833878542986213,13.414612858866638
