x,TH_final,TW_H_final,TW_C_final,TC_final,dT,PH,dp_amb,alpha_i_final,alpha_o_final,Q3,mdot_vec,Tower inlet diameter,Air face velocity,Bu_c,Bu_j
0.0,339.10999999999996,0.0,0.0,0.0,0.0,8000000.0,20.584758098090663,0.0,0.0,0.0,0.0499562244116364,0,3,0.0,0.0
0.4,336.106220231138,323.2560522532404,322.773588476458,314.1736877539166,24.955503084583654,7999982.470939706,20.495284123334635,701.8287900371101,49.60079861219186,268.3435007642692,0.050543775587918616,,,0.06830571577766374,0.00012698656986848893
0.8,333.3982505607253,322.4183658088455,321.9627062712079,313.838889764803,22.349936053211536,7999965.445023663,20.437058298742198,771.2972041504578,49.59055169540128,253.43514139642014,0.05002345692419789,,,0.06568592089077373,19.843276833361557
1.2000000000000002,330.9671415913663,321.590688042629,321.16142107646306,313.50655363382515,20.02953865917533,7999948.890419196,20.411105044043598,846.1158129513319,49.58034514148215,238.75574915132205,0.05047654307519626,,,0.0630992636447013,77.33351599242607
1.6,328.7920780498687,320.7824958789114,320.3789338129015,313.1809721828819,17.971005498064528,7999932.776055394,,926.1628281272234,49.570319400098946,224.45883562541155,,,,0.06056822657017378,169.18223689268788
2.0,326.8512807538409,320.00179101951977,319.62301644016014,312.86582342538173,16.150085897014378,7999917.071955915,,1011.2555413758689,49.56059601861892,210.67218207132277,,,,0.05811050278996579,291.9418259780274
2.4000000000000004,325.1228275754308,319.2548788413203,318.8997977574671,312.5640804716714,14.542512612420353,7999901.7494993815,,1101.1659233959133,49.551275776073524,197.49399992450122,,,,0.05573876206908183,442.1597999709444
2.8000000000000003,323.5853338190611,318.5463215658052,318.21371774475614,312.2779899087758,13.124771556782491,7999886.78160335,,1195.6368230759783,49.542434868498994,184.99227921517158,,,,0.05346087231932573,616.4902684172654
3.2,322.21846273194984,317.8790119719136,317.56759691974264,312.009064480483,11.87471663283219,7999872.142835758,,1294.3952083219785,49.534126916122794,173.2072112176897,,,,0.051280712133855925,811.7649282191903
3.6,321.00326388260635,317.2543661820608,316.9628222474563,311.758150824455,10.77195036281637,7999857.809463574,,1397.1634724350351,49.52638510392214,162.15501309221435,,,,0.04919898526636518,1025.0293539774455
4.0,319.92236824584273,316.6725777436082,316.3995932186059,311.5255318940497,9.798011092586762,7999843.75945042,,1503.6686812807868,49.519221262341624,151.8323791740712,,,,0.047213959867152294,1253.552072550483
4.4,318.96006319565464,316.13288383642794,315.8771798176851,311.3110418901021,8.9364210022228,7999829.972415017,,1613.649200644671,49.51263484801195,142.2210637434034,,,,0.045322158926506644,1494.8156179507296
4.800000000000001,318.102280890569,315.63381944132124,315.3941692441736,311.1141790037976,8.17262695865611,7999816.429561767,,1726.8598156292248,49.506611680668584,133.29202306869482,,,,0.043518896462528316,1746.4951021408303
5.2,317.33652748091964,315.17344027856177,314.9486824945329,310.9342105525949,7.493875143351261,7999803.113592856,,1843.0755719874655,49.50113199197804,125.00895092368991,,,,0.04179868906433184,2006.4291719799517
5.6000000000000005,316.65177553227926,314.74950548870675,314.53855180770637,310.7702565907741,6.889054512194946,7999790.008609513,,1962.094361850073,49.496168392814006,117.33119042678652,,,,0.0401555896974482,2272.588165626726
6.0,316.0383371512745,314.35962222479526,314.16146123801366,310.62135947692013,6.348522935351809,7999777.1000082875,,2083.7389987969655,49.491692720208675,110.21596951620346,,,,0.038583419924043835,2543.0406554834703
6.4,315.4877302214475,314.00135480876105,313.81505284170646,310.48653621156825,5.863933391986507,7999764.37437663,,2207.859013180258,49.487674886162736,103.62005284754935,,,,0.037075929115168764,2815.919715080676
6.800000000000001,314.992545990627,313.67230307012784,313.4970028822135,310.3648168616047,5.428069587462289,7999751.81939079,,2334.332198380797,49.48408474949358,97.50092831731284,,,,0.035626911128804964,3089.390514986725
7.2,314.5463231673917,313.3701556361864,313.20507364545153,310.2552689909467,5.034696112021436,7999739.4237180445,,2463.0659635053503,49.480893850718076,91.81762744644534,,,,0.03423029484348042,3361.6205760326498
7.6000000000000005,314.1434317972245,313.0927254537094,312.9371481245916,310.1570193323209,4.67842053427978,7999727.176924488,,2593.9995362992117,49.478076305429624,86.53119084003127,,,,0.03288017216887376,3630.7489570241983
8.0,313.77896798855704,312.83796933027037,312.6912490105318,310.0692604510809,4.354575640792575,7999715.069388998,,2727.105862312807,49.475606826145544,81.60497457623455,,,,0.031570845101024786,3894.8602520122254
8.4,313.44866002154765,312.60399772023686,312.46554828012944,309.99125706518083,4.0591144750514445,7999703.0922236685,,2862.3944281328822,49.47346329113306,77.00476021659524,,,,0.030296839156457343,4151.958951963551
8.8,313.1487855942053,312.3890774125858,312.25836992552365,309.92235062570774,3.788518640248924,7999691.237200607,,2999.915237050808,49.47162612500402,72.69873169756016,,,,0.029052895791440363,4399.943595927866
9.200000000000001,312.876099334032,312.19162838230255,312.06818691939236,309.86195696626373,3.5397214848994167,7999679.496684863,,3139.7632768976514,49.47007824992921,68.6574120250621,,,,0.027833983256386027,4636.585212275881
9.600000000000001,312.62776978761394,312.01021783725184,311.8936155108512,309.8095651096574,3.310040960087065,7999667.863573132,,3282.084727926254,49.468805067266715,64.85352471253603,,,,0.026635290036639777,4859.505715649741
10.0,312.4013249107193,311.8435523027909,311.7334076164918,309.76473502469554,3.0971221510305895,7999656.331237773,,3427.0850343898887,49.46779440966472,61.261823456442855,,,,0.02545221752406206,5066.1577041895125
10.4,312.19460506315505,311.69046857322996,311.58644209738793,309.7270947548172,2.898888494439859,7999644.893475685,,3575.039228148558,49.46703658328618,57.85891096656483,,,,0.024280378487225765,5253.806885680874
10.8,312.0057226176678,311.5499244222784,311.45171582217654,309.6963375410015,2.713499707251003,7999633.544461538,,3726.3055680488387,49.466523964401354,54.62304287330869,,,,0.023115594308133446,5419.516166946725
11.200000000000001,311.8330273550163,311.4209894763031,311.32833490429834,309.67221997018044,2.5393154639951945,7999622.278704889,,3881.343604355862,49.466251190537676,51.53392528746351,,,,0.021953893976195276,5560.131975580506
11.600000000000001,311.67507682687454,311.30283618776997,311.21550600130774,309.6545585282964,2.3748651889981716,7999611.091010705,,4040.7374597669786,49.466215150363084,48.57253353248404,,,,0.020791532242534487,5672.277659865842
12.0,311.5306111011944,311.19473169276216,311.1125285300665,309.64322811559276,2.2188209353809043,7999599.976442856,,4205.227714142482,49.46641488620971,45.72091322614628,,,,0.019625002244260125,5752.349590609076
0.0,339.10999999999996,0.0,0.0,0.0,0.0,8000000.0,,0.0,0.0,0.0,,,,0.0,0.0
0.4,335.8770761889335,321.06442948646435,320.53810419499405,311.131526308054,28.021897354207965,7999982.118332244,,668.8379130084842,49.47003363809073,292.7390159683234,,,,0.0821329222124102,0.00014717254704627115
0.8,332.9690665514479,320.3645166537562,319.8665226133445,310.96570892063716,25.02790344950313,7999964.790868427,,739.5441636342032,49.466875165445984,276.9813416021431,,,,0.07919580140926115,23.13463829520183
1.2000000000000002,330.3682909274291,319.6625154803449,319.1929528960885,310.79976119991574,22.349797262838024,7999947.982904885,,816.5257469411919,49.46372418891173,261.16793375147756,,,,0.07622832447344814,90.62202247335922
1.6,328.05366907562336,318.96844336571996,318.5270165301517,310.6362364622241,19.96689409594228,7999931.6600102745,,899.7707059507201,49.46063392968049,245.51899664357907,,,,0.07326235654264018,199.08861014745096
2.0,326.00195383539,318.29104047628164,317.87710853124463,310.4773635842991,17.855889591134883,7999915.7885238,,989.1419861079021,49.45765158537514,230.2265010565212,,,,0.07032834583342044,344.6855727856239
2.4000000000000004,324.18886202469776,317.6376807757868,317.2503107559875,310.32500263275966,15.992080006369406,7999900.335971328,,1084.426593998785,49.45481604655455,215.4529152468794,,,,0.0674515430550015,523.318127562019
2.8000000000000003,322.5900878172341,317.01413888047017,316.6521702337313,310.18062837215115,14.350413498255591,7999885.271390339,,1185.3552212792058,49.45215927729369,201.32482169068726,,,,0.0646513117331767,730.8408660957956
3.2,321.18211811058217,316.42451198534474,316.0866234490377,310.04529880486353,12.906430041403496,7999870.565558197,,1291.620499313711,49.44970377091446,187.9316066097561,,,,0.06194142970967223,963.2066116024407
3.6,319.9428160850821,315.8713132816943,315.556085925213,309.91967506446844,11.636950785555314,7999856.191129504,,1402.8940424728098,49.44746411460513,175.3275923428761,,,,0.05933065616072784,1216.565077218959
4.0,318.851792519402,315.3556749888787,315.06164729414826,309.8040780492258,10.520526997557852,7999842.122694575,,1518.841322144525,49.445448120682194,163.53646578894833,,,,0.05682344437983842,1487.3151448342862
4.4,317.89059115867605,314.87760199901334,314.60331474948316,309.6985475469497,9.537688642308296,7999828.336773869,,1639.1335805049932,49.44365786712767,152.55694685373967,,,,0.05442075197832815,1772.1203543991035
4.800000000000001,317.0427332378239,314.4362370741924,314.180267758917,309.6029111651138,8.671024642546797,7999814.811764145,,1763.4574812116828,49.44209112731282,142.36862010315986,,,,0.05212078900862439,2067.8963808303183
5.2,316.2936623601068,314.0301068966135,313.7910943782391,309.51684753219126,7.905145733127142,7999801.527850581,,1891.5226046172406,49.440742697113386,132.93734989480163,,,,0.04991968962044565,2371.7798167839483
5.6000000000000005,315.63062546637747,313.6573327337736,313.4339935195393,309.4399373980349,7.226571562201684,7999788.466896982,,2023.0670471373721,49.43960572021046,124.21995079414303,,,,0.04781210015528203,2681.0865720756265
6.0,315.0425181875127,313.3158014947073,313.1069392506331,309.37170733592995,6.6235716956575175,7999775.6123238085,,2157.861799426606,49.438671705025136,116.16794557245535,,,,0.04579165149012093,2993.2648074934914
6.4,314.51971512761787,313.00329740225555,312.80780728995194,309.3116643771809,6.085985777745975,7999762.948981391,,2295.714274073429,49.43793223845588,108.73044492516783,,,,0.043851331693087664,3305.8464168275823
6.800000000000001,314.0538989953117,312.7175983205854,312.53446753241707,309.2593201755452,5.60504077649216,7999750.463023636,,2436.4712441210186,49.43737915191042,101.85626190011614,,,,0.041983780813835275,3616.4002405343044
7.2,313.6378973970384,312.45654293857467,312.2848485877811,309.2142079430291,5.1731751322357695,7999738.141785853,,2580.0215958722965,49.43700488756318,95.49538303414826,,,,0.04018151544333223,3922.4884864303367
7.6000000000000005,313.265532353737,312.2180751647538,312.05698046776126,309.1758945637357,4.78387524258045,7999725.973669014,,2726.2993977234214,49.436802775806896,89.5999182395937,,,,0.03843708744134677,4221.626346161102
8.0,312.9314848811802,312.000270912046,311.8490203548899,309.14398805311544,4.431528203974551,7999713.948031723,,2875.287505283145,49.43676721470901,84.12466584599227,,,,0.036743198933574625,4511.245641667437
8.4,312.63117524036454,311.80135199220956,311.659265989167,309.1181419948209,4.111291607668363,7999702.055090474,,3027.022053904054,49.4368937793715,79.02739502395984,,,,0.03509278401667442,4788.662648664347
8.8,312.3606584152786,311.61969102398984,311.4861604403351,309.09805770954745,3.818979565378527,7999690.285828282,,3181.59835133384,49.43717929868793,74.26892133744256,,,,0.03347906139670152,5051.049491288308
9.200000000000001,312.11653374215945,311.45381015332094,311.32829093979336,309.0834849921747,3.5509641489892942,7999678.631911396,,3339.1785961210094,49.437621901823206,69.81304463537654,,,,0.03189556951517808,5295.409393121857
9.600000000000001,311.89586732938915,311.30237581456527,311.1843839195469,309.0742220918144,3.3040905918385306,7999667.085613636,,3500.002088283307,49.43822105238054,65.62639457953252,,,,0.030336188907304454,5518.5556536214035
10.0,311.696125815032,311.1641911326827,311.05329779693,309.07011537157643,3.0756045953006605,7999655.639747747,,3664.3987910222954,49.438977580573784,61.67821787794397,,,,0.028795156766878365,5717.09447734742
10.4,311.51512001205305,311.03818696663865,310.9340144465256,309.07105823017747,2.8630905874430255,7999644.287603107,,3832.807168581965,49.439893701057336,57.94013994459655,,,,0.027267084574160088,5887.413404696126
10.8,311.3509571307159,310.923412566707,310.8256303231733,309.0769907253193,2.664418772977683,7999633.022889121,,4005.7981459634866,49.44097309861228,54.3859058829928,,,,0.02574697427235522,6025.674979448964
11.200000000000001,311.2020003838444,310.8190263021444,310.727347665764,309.0878990745133,2.477699856207778,7999621.8396836305,,4184.1074268404645,49.442221112879274,50.99111566233381,,,,0.02423023971101371,6127.817434428513
11.600000000000001,311.06683491768484,310.7242867576221,310.6384660638553,309.10381527559815,2.3012464051821553,7999610.732385675,,4368.679468414043,49.44364413317305,47.73296261043649,,,,0.022712739117415837,6189.564943782444
12.0,310.94423914528943,310.6385443454841,310.5583745206463,309.12481794171447,2.133539941640379,7999599.695672025,,4560.727980959006,49.44525037685862,44.58998272014222,,,,0.02119082569100853,6206.451433583679
0.0,308.8707753069836,0.0,0.0,0.0,0.0,7999266.714776298,,0.0,0.0,0.0,,,,0.0,0.0
0.4,308.9052723065283,308.75293529634104,308.7031317399294,307.81175517246356,1.2334434750416108,7999276.008762261,,7697.019670544626,49.39480310578392,27.700444254687827,,,,0.026432505458321938,7765.875441655648
0.8,308.9411994264521,308.783382006874,308.73264849638673,307.8246269207379,1.258710031877797,7999285.339193125,,7573.5781491192765,49.39521593460504,28.21767923919554,,,,0.02651318276008825,7259.948425206511
1.2000000000000002,308.97864090582004,308.81494400145436,308.76324811464576,307.8380017532852,1.2850479604297789,7999294.706912055,,7444.577159393336,49.395645386924905,28.752947201642474,,,,0.026615119700611495,6774.884565573064
1.6,309.01769346095386,308.8478654820531,308.7951648143357,307.85193534894375,1.3125236302702206,7999304.112798687,,7320.367300204456,49.39609246143564,29.31180035074182,,,,0.026704136897733245,6301.774239612681
2.0,309.05845742296043,308.8821388027031,308.82839411974624,307.8664801444446,1.3411732037674255,7999313.557772226,,7195.616105792216,49.396559744225634,29.892475379470056,,,,0.026797350178746425,5845.167512011101
2.4000000000000004,309.1010418409475,308.917840900975,308.86300979500686,307.8816532145892,1.3710943699955465,7999323.042792175,,7070.292587914555,49.39704752331223,30.49673740619032,,,,0.026895670599061852,5405.213158961382
2.8000000000000003,309.1455646599489,308.95505860028663,308.8990961747254,307.8974944732695,1.4023686105269917,7999332.568861161,,6944.418974918644,49.39755712464139,31.125970639971808,,,,0.026999346498566525,4981.898392957851
3.2,309.1921535989677,308.99388544690885,308.93674413071165,307.91404704014565,1.4350841071164382,7999342.137027647,,6818.018195056002,49.398089983130404,31.781662618532263,,,,0.02710863882514208,4575.2181044243225
3.6,309.24094712843254,309.03442233466836,308.9760516803157,307.9313575600852,1.4693364018543207,7999351.74838886,,6691.113895228229,49.39864765371802,32.4654132335625,,,,0.027223822955523558,4185.175882627666
4.0,309.2920955599029,309.07677819514373,309.01712465860953,307.9494765601426,1.505229131882345,7999361.404093949,,6563.73046496532,49.39923182370295,33.17894462808742,,,,0.02734519059044557,3811.785016906097
4.4,309.34576226256735,309.1210707606906,309.0600774624142,307.9684588465118,1.54287484937106,7999371.105347404,,6435.893063251686,49.39984432649342,33.92411209582198,,,,0.027473051766771766,3455.069501906983
4.800000000000001,309.4021250229708,309.1674274090707,309.1050338730511,307.98836394629257,1.5823959381385748,7999380.853412751,,6307.62765350643,49.40048715693673,34.702916042540394,,,,0.02760773692674195,3115.065056089972
5.2,309.4613775674733,309.21598609846205,309.1521279672488,308.0092565994852,1.6239256400313025,7999390.649616558,,6178.961038821346,49.40116262407737,35.51751523435948,,,,0.0277495991735342,2791.8201890915984
5.6000000000000005,309.52373126863154,309.2668964057211,309.20150512985754,308.03120730404595,1.6676092077374847,7999400.495352777,,6049.920919309362,49.40187301848112,36.370241201795025,,,,0.027899016396277926,2485.3973038067347
6.0,309.5894170612636,309.3203206761697,309.2533231746622,308.05429292664513,1.7136051983414973,7999410.392087453,,5920.535937515796,49.40262088496228,37.26361439009224,,,,0.02805639380665925,2195.8739148442583
6.4,309.6586875968091,309.3764353013594,309.30775359009806,308.0785973824577,1.7620869304498115,7999420.341363848,,5790.835739952829,49.40340905694461,38.200361891026986,,,,0.028222166480001778,1923.3439558231921
6.800000000000001,309.73181966915445,309.43543213943184,309.3649829244793,308.10421239440007,1.8132441267376862,7999430.344808007,,5660.851050467825,49.4042406373502,39.1834369926676,,,,0.0283968019827502,1667.9192134743842
7.2,309.80911695343286,309.4975200801202,309.42521430921533,308.13123818484956,1.8672848493818606,7999440.404134817,,5530.613652251762,49.40511902522178,40.216042440685506,,,,0.028580804936881088,1429.7310066437512
7.6000000000000005,309.8909130936848,309.5629268290382,309.48866920511847,308.1597847018787,1.9244374614112871,7999450.5211546235,,5400.156664878933,49.40604795495738,41.30165155405552,,,,0.028774716775294387,1208.931760893525
8.0,309.97757519311943,309.63190087249893,309.55558932131675,308.1899727738527,1.9849529573440918,7999460.6977804275,,5269.5146845321,49.4070315357615,42.44403375310298,,,,0.028979118030430264,1005.6970281227971
8.4,310.06950777578555,309.7047136180403,309.6262386960695,308.22193491138705,2.0491078595816816,7999470.936035759,,5138.723666210026,49.40807428569789,43.64728778123507,,,,0.02919463595734289,820.2279028859459
8.8,310.16715727713995,309.781661840528,309.700906087681,308.2558168153387,2.117207208679986,7999481.238063279,,5007.8211596931615,49.409181182524954,44.91587242584926,,,,0.029421946142022273,652.7533996859069
9.200000000000001,310.27101714575286,309.8630703869126,309.77990761442993,308.2917788672847,2.1895880730148747,7999491.606134193,,4876.846447559098,49.41035771654483,46.25464251138658,,,,0.029661776385827614,503.53324235688973
9.600000000000001,310.38163364780394,309.9492951888436,309.86358969549707,308.3299977960571,2.2666235616013637,7999502.042658568,,4745.840694139313,49.41160994972936,47.66888882278431,,,,0.02991491095373129,372.86098336621194
10.0,310.4996124848458,310.04072659878983,309.9523323043419,308.3706685822434,2.3487275105641743,7999512.5501966365,,4614.847033326736,49.41294457822267,49.16438410141971,,,,0.030182196868649057,261.06749900966327
10.4,310.625626334479,310.1377931685174,310.046552666301,308.4140064220216,2.4363595499660846,7999523.131471206,,4483.910924821092,49.4143691015769,50.747428035179965,,,,0.03046454501826224,168.52482147025745
10.8,310.7604234798297,310.2409657340453,310.14670923577575,308.4602488714943,2.5300314613535875,7999533.789381299,,4353.080106132367,49.41589195631336,52.42490720873896,,,,0.030762941179138838,95.65050731799118
11.200000000000001,310.90483767496096,310.35076205421154,310.2533062313201,308.5096587276316,2.630314071449561,7999544.52701714,,4222.404921678135,49.41752193257542,54.204352649763514,,,,0.031078449534893065,42.91239227812148
11.600000000000001,311.0597994371142,310.4677519453829,310.3668986554316,308.5625272155668,2.737845178414318,7999555.347676659,,4091.938633596829,49.41926910916293,56.094003741499975,,,,0.031412217272435705,10.833912466666686
